Date,Low,Open,Volume,High,Close,Adjusted Close
04-10-1989,2.4375,2.46875,20636000,2.546875,2.5,1.8717541694641113
05-10-1989,2.5,2.515625,6453600,2.625,2.578125,1.9302456378936768
06-10-1989,2.546875,2.59375,2755200,2.625,2.546875,1.9068495035171509
09-10-1989,2.5,2.546875,1084000,2.546875,2.546875,1.9068495035171509
10-10-1989,2.5,2.5625,1493600,2.5625,2.53125,1.8951493501663208
11-10-1989,2.46875,2.5,1260000,2.515625,2.515625,1.8834515810012817
12-10-1989,2.515625,2.515625,602400,2.546875,2.53125,1.8951493501663208
13-10-1989,2.46875,2.53125,3970400,2.53125,2.484375,1.860055685043335
16-10-1989,2.375,2.375,3924800,2.46875,2.46875,1.8483569622039795
17-10-1989,2.4375,2.4375,1843200,2.5,2.5,1.8717541694641113
18-10-1989,2.484375,2.5,1128000,2.5625,2.546875,1.9068495035171509
19-10-1989,2.53125,2.53125,1040000,2.546875,2.546875,1.9068495035171509
20-10-1989,2.515625,2.53125,237600,2.53125,2.53125,1.8951493501663208
23-10-1989,2.546875,2.546875,87200,2.5625,2.546875,1.9068495035171509
24-10-1989,2.53125,2.546875,689600,2.5625,2.5625,1.9185481071472168
25-10-1989,2.515625,2.546875,608000,2.578125,2.546875,1.9068495035171509
26-10-1989,2.546875,2.546875,228800,2.5625,2.546875,1.9068495035171509
27-10-1989,2.5,2.546875,456000,2.546875,2.515625,1.8834515810012817
30-10-1989,2.5,2.515625,250400,2.515625,2.5,1.8717541694641113
31-10-1989,2.5,2.5,424800,2.515625,2.5,1.8717541694641113
01-11-1989,2.515625,2.515625,715200,2.5625,2.5625,1.9185481071472168
02-11-1989,2.59375,2.59375,130400,2.640625,2.640625,1.977038860321045
03-11-1989,2.625,2.625,1118400,2.75,2.734375,2.0472302436828613
06-11-1989,2.578125,2.71875,264800,2.71875,2.578125,1.9302456378936768
07-11-1989,2.5,2.546875,727200,2.6875,2.6875,2.012136459350586
08-11-1989,2.671875,2.6875,236800,2.71875,2.71875,2.035531759262085
09-11-1989,2.6875,2.71875,60800,2.71875,2.6875,2.012136459350586
10-11-1989,2.546875,2.6875,210400,2.6875,2.5625,1.9185481071472168
13-11-1989,2.515625,2.5625,92800,2.5625,2.546875,1.9068495035171509
14-11-1989,2.484375,2.578125,428000,2.578125,2.53125,1.8951493501663208
15-11-1989,2.53125,2.546875,176000,2.578125,2.5625,1.9185481071472168
16-11-1989,2.546875,2.546875,301600,2.59375,2.59375,1.941943883895874
17-11-1989,2.59375,2.59375,249600,2.640625,2.640625,1.977038860321045
20-11-1989,2.609375,2.65625,43200,2.65625,2.609375,1.9536439180374146
21-11-1989,2.59375,2.59375,108800,2.671875,2.671875,2.000436305999756
22-11-1989,2.6875,2.6875,255200,2.75,2.75,2.058929681777954
24-11-1989,2.78125,2.78125,572000,2.953125,2.921875,2.1876120567321777
27-11-1989,2.859375,2.90625,253600,2.9375,2.875,2.152517318725586
28-11-1989,2.828125,2.875,560000,2.875,2.828125,2.1174213886260986
29-11-1989,2.78125,2.8125,60800,2.8125,2.796875,2.094024896621704
30-11-1989,2.8125,2.8125,712800,2.90625,2.890625,2.1642138957977295
01-12-1989,2.890625,2.890625,356800,2.953125,2.90625,2.1759138107299805
04-12-1989,2.875,2.9375,172000,2.984375,2.984375,2.234405755996704
05-12-1989,2.90625,2.953125,93600,2.984375,2.90625,2.1759138107299805
06-12-1989,2.90625,2.90625,668800,3.0,2.984375,2.234405755996704
07-12-1989,2.921875,2.984375,215200,2.984375,2.953125,2.2110092639923096
08-12-1989,2.921875,2.921875,122400,2.953125,2.953125,2.2110092639923096
11-12-1989,2.9375,2.96875,306400,3.03125,3.0,2.2461037635803223
12-12-1989,2.984375,3.015625,1119200,3.03125,3.015625,2.257802724838257
13-12-1989,2.984375,3.0,400000,3.15625,3.15625,2.3630893230438232
14-12-1989,3.109375,3.125,391200,3.140625,3.125,2.3396918773651123
15-12-1989,3.09375,3.140625,155200,3.140625,3.109375,2.327993392944336
18-12-1989,3.03125,3.078125,224000,3.125,3.03125,2.2695019245147705
19-12-1989,3.03125,3.03125,215200,3.0625,3.0625,2.292898654937744
20-12-1989,3.046875,3.0625,166400,3.109375,3.078125,2.3045971393585205
21-12-1989,3.0625,3.109375,174400,3.125,3.109375,2.327993392944336
22-12-1989,3.109375,3.125,173600,3.125,3.125,2.3396918773651123
26-12-1989,3.078125,3.109375,97600,3.109375,3.078125,2.3045971393585205
27-12-1989,3.03125,3.0625,144000,3.0625,3.03125,2.2695019245147705
28-12-1989,3.03125,3.046875,11200,3.046875,3.03125,2.2695019245147705
29-12-1989,3.015625,3.03125,219200,3.15625,3.15625,2.3630893230438232
02-01-1990,3.03125,3.125,194400,3.125,3.046875,2.2811989784240723
03-01-1990,3.03125,3.0625,361600,3.0625,3.03125,2.2695019245147705
04-01-1990,2.953125,3.03125,166400,3.0625,2.953125,2.2110092639923096
05-01-1990,2.859375,2.9375,100800,2.9375,2.90625,2.1759138107299805
08-01-1990,2.84375,2.875,880800,2.890625,2.859375,2.1408185958862305
09-01-1990,2.8125,2.828125,282400,2.84375,2.8125,2.105722188949585
10-01-1990,2.6875,2.765625,784000,2.765625,2.703125,2.028341293334961
11-01-1990,2.703125,2.71875,347200,2.765625,2.75,2.0635159015655518
12-01-1990,2.6875,2.71875,159200,2.734375,2.71875,2.040065288543701
15-01-1990,2.71875,2.734375,25600,2.734375,2.71875,2.040065288543701
16-01-1990,2.625,2.6875,172800,2.703125,2.703125,2.028341293334961
17-01-1990,2.71875,2.71875,216000,2.8125,2.71875,2.040065288543701
18-01-1990,2.6875,2.6875,157600,2.71875,2.703125,2.028341293334961
19-01-1990,2.734375,2.734375,8800,2.75,2.75,2.0635159015655518
22-01-1990,2.71875,2.734375,56800,2.75,2.734375,2.0517899990081787
23-01-1990,2.734375,2.765625,101600,2.765625,2.75,2.0635159015655518
24-01-1990,2.6875,2.734375,26400,2.734375,2.6875,2.0166170597076416
25-01-1990,2.671875,2.6875,249600,2.71875,2.71875,2.040065288543701
26-01-1990,2.671875,2.703125,45600,2.71875,2.671875,2.004890203475952
29-01-1990,2.625,2.6875,444000,2.6875,2.640625,1.9814428091049194
30-01-1990,2.578125,2.625,548000,2.65625,2.65625,1.9931670427322388
31-01-1990,2.6875,2.6875,757600,2.859375,2.859375,2.1455860137939453
01-02-1990,2.84375,2.875,149600,2.875,2.859375,2.1455860137939453
02-02-1990,2.875,2.875,720000,2.90625,2.875,2.15731143951416
05-02-1990,2.875,2.90625,163200,2.90625,2.875,2.15731143951416
06-02-1990,2.84375,2.875,99200,2.90625,2.890625,2.169034719467163
07-02-1990,2.90625,2.90625,32800,2.9375,2.9375,2.204209327697754
08-02-1990,2.96875,2.96875,346400,3.125,3.046875,2.286280393600464
09-02-1990,2.96875,3.078125,179200,3.125,3.0,2.2511062622070312
12-02-1990,2.90625,3.0,28000,3.0,2.90625,2.1807608604431152
13-02-1990,2.9375,2.9375,26400,2.953125,2.953125,2.2159337997436523
14-02-1990,2.9375,2.953125,32800,2.96875,2.9375,2.204209327697754
15-02-1990,2.953125,2.953125,152000,2.96875,2.953125,2.2159337997436523
16-02-1990,2.96875,2.96875,32000,2.96875,2.96875,2.2276577949523926
20-02-1990,2.953125,2.984375,23200,2.984375,2.953125,2.2159337997436523
21-02-1990,2.90625,2.953125,553600,2.953125,2.90625,2.1807608604431152
22-02-1990,2.84375,2.90625,148000,2.90625,2.84375,2.133861780166626
23-02-1990,2.6875,2.78125,575200,2.78125,2.71875,2.040065288543701
26-02-1990,2.734375,2.734375,477600,2.75,2.75,2.0635159015655518
27-02-1990,2.765625,2.765625,357600,2.84375,2.84375,2.133861780166626
28-02-1990,2.796875,2.8125,145600,2.828125,2.796875,2.0986883640289307
01-03-1990,2.75,2.796875,225600,2.796875,2.75,2.0635159015655518
02-03-1990,2.6875,2.75,931200,2.78125,2.703125,2.028341293334961
05-03-1990,2.65625,2.671875,146400,2.703125,2.671875,2.004890203475952
06-03-1990,2.625,2.671875,258400,2.734375,2.734375,2.0517899990081787
07-03-1990,2.703125,2.734375,174400,2.75,2.75,2.0635159015655518
08-03-1990,2.734375,2.75,146400,2.796875,2.78125,2.086963653564453
09-03-1990,2.734375,2.75,194400,2.78125,2.734375,2.0517899990081787
12-03-1990,2.625,2.703125,1072800,2.71875,2.6875,2.0166170597076416
13-03-1990,2.671875,2.671875,662400,2.6875,2.6875,2.0166170597076416
14-03-1990,2.671875,2.671875,298400,2.765625,2.765625,2.0752387046813965
15-03-1990,2.71875,2.78125,192000,2.796875,2.71875,2.040065288543701
16-03-1990,2.734375,2.75,271200,2.78125,2.78125,2.086963653564453
19-03-1990,2.75,2.75,476000,2.765625,2.765625,2.0752387046813965
20-03-1990,2.75,2.75,898400,2.90625,2.796875,2.0986883640289307
21-03-1990,2.796875,2.796875,102400,2.8125,2.796875,2.0986883640289307
22-03-1990,2.75,2.75,177600,2.765625,2.765625,2.0752387046813965
23-03-1990,2.796875,2.796875,320000,2.796875,2.796875,2.0986883640289307
26-03-1990,2.75,2.78125,37600,2.78125,2.75,2.0635159015655518
27-03-1990,2.734375,2.734375,24000,2.75,2.75,2.0635159015655518
28-03-1990,2.84375,2.84375,706400,2.9375,2.921875,2.1924829483032227
29-03-1990,2.890625,2.921875,361600,2.9375,2.90625,2.1807608604431152
30-03-1990,2.921875,2.921875,161600,2.921875,2.921875,2.1924829483032227
02-04-1990,2.84375,2.921875,184800,2.921875,2.875,2.15731143951416
03-04-1990,2.875,2.875,358400,3.03125,2.984375,2.239382266998291
04-04-1990,2.90625,2.984375,364800,2.984375,2.90625,2.1807608604431152
05-04-1990,2.90625,2.9375,373600,2.953125,2.90625,2.1807608604431152
06-04-1990,2.78125,2.921875,810400,2.921875,2.78125,2.086963653564453
09-04-1990,2.734375,2.734375,336800,2.765625,2.734375,2.0564115047454834
10-04-1990,2.71875,2.75,426400,2.8125,2.765625,2.0799121856689453
11-04-1990,2.71875,2.78125,234400,2.8125,2.734375,2.0564115047454834
12-04-1990,2.59375,2.71875,456000,2.734375,2.625,1.9741545915603638
16-04-1990,2.640625,2.640625,273600,2.734375,2.703125,2.032909393310547
17-04-1990,2.703125,2.71875,16800,2.71875,2.71875,2.0446605682373047
18-04-1990,2.6875,2.6875,333600,2.75,2.71875,2.0446605682373047
19-04-1990,2.671875,2.71875,207200,2.71875,2.6875,2.0211594104766846
20-04-1990,2.65625,2.671875,168800,2.6875,2.671875,2.009406805038452
23-04-1990,2.625,2.65625,173600,2.65625,2.625,1.9741545915603638
24-04-1990,2.625,2.625,458400,2.671875,2.625,1.9741545915603638
25-04-1990,2.640625,2.65625,104000,2.671875,2.65625,1.9976553916931152
26-04-1990,2.625,2.625,461600,2.6875,2.6875,2.0211594104766846
27-04-1990,2.6875,2.6875,133600,2.703125,2.703125,2.032909393310547
30-04-1990,2.6875,2.703125,68800,2.71875,2.71875,2.0446605682373047
01-05-1990,2.6875,2.71875,732800,2.828125,2.8125,2.1151657104492188
02-05-1990,2.765625,2.78125,575200,2.828125,2.8125,2.1151657104492188
03-05-1990,2.828125,2.84375,105600,2.859375,2.828125,2.1269168853759766
04-05-1990,2.78125,2.84375,279200,2.84375,2.78125,2.0916645526885986
07-05-1990,2.78125,2.78125,32800,2.84375,2.84375,2.138667583465576
08-05-1990,2.828125,2.84375,48800,2.84375,2.828125,2.1269168853759766
09-05-1990,2.796875,2.84375,1232800,2.859375,2.796875,2.103415012359619
10-05-1990,2.796875,2.8125,428000,2.84375,2.796875,2.103415012359619
11-05-1990,2.828125,2.828125,172000,2.875,2.875,2.16217041015625
14-05-1990,2.75,2.890625,2418400,2.890625,2.75,2.0681629180908203
15-05-1990,2.75,2.78125,5804800,2.828125,2.8125,2.1151657104492188
16-05-1990,2.8125,2.8125,367200,2.96875,2.90625,2.185671806335449
17-05-1990,2.921875,2.921875,196000,2.953125,2.953125,2.2209243774414062
18-05-1990,2.96875,2.96875,181600,3.0,3.0,2.256175994873047
21-05-1990,2.921875,2.96875,74400,2.96875,2.953125,2.2209243774414062
22-05-1990,2.96875,2.984375,40800,2.984375,2.96875,2.232675552368164
23-05-1990,2.90625,2.96875,30400,2.96875,2.90625,2.185671806335449
24-05-1990,2.75,2.921875,483200,2.921875,2.8125,2.1151657104492188
25-05-1990,2.75,2.8125,817600,2.875,2.875,2.16217041015625
29-05-1990,2.890625,2.890625,60800,2.90625,2.90625,2.185671806335449
30-05-1990,2.921875,2.9375,129600,2.984375,2.96875,2.232675552368164
31-05-1990,2.90625,2.9375,143200,2.984375,2.96875,2.232675552368164
01-06-1990,2.953125,2.96875,47200,2.984375,2.96875,2.232675552368164
04-06-1990,2.90625,2.9375,68000,2.984375,2.984375,2.2444257736206055
05-06-1990,2.796875,2.984375,1125600,3.0,2.890625,2.1739206314086914
06-06-1990,2.875,2.890625,44000,2.90625,2.875,2.16217041015625
07-06-1990,2.859375,2.890625,212800,2.890625,2.859375,2.150419235229492
08-06-1990,2.8125,2.875,405600,2.875,2.84375,2.138667583465576
11-06-1990,2.84375,2.859375,48800,2.890625,2.875,2.16217041015625
12-06-1990,2.859375,2.90625,196000,3.0,2.984375,2.2444257736206055
13-06-1990,2.96875,2.96875,208000,3.09375,2.96875,2.232675552368164
14-06-1990,2.9375,2.953125,20800,2.984375,2.984375,2.2444257736206055
15-06-1990,2.921875,2.984375,158400,2.984375,2.96875,2.232675552368164
18-06-1990,2.96875,2.96875,1600,2.96875,2.96875,2.232675552368164
19-06-1990,2.875,2.9375,174400,2.9375,2.921875,2.1974215507507324
20-06-1990,2.90625,2.953125,127200,2.953125,2.9375,2.2091739177703857
21-06-1990,2.921875,2.921875,6400,2.9375,2.9375,2.2091739177703857
22-06-1990,2.921875,2.9375,356800,2.953125,2.953125,2.2209243774414062
25-06-1990,2.90625,2.921875,24800,2.9375,2.921875,2.1974215507507324
26-06-1990,2.859375,2.90625,207200,2.921875,2.921875,2.1974215507507324
27-06-1990,2.921875,2.921875,13600,2.9375,2.921875,2.1974215507507324
28-06-1990,2.9375,2.9375,157600,2.96875,2.96875,2.232675552368164
29-06-1990,2.953125,2.984375,327200,2.984375,2.96875,2.232675552368164
02-07-1990,2.875,2.953125,322400,2.953125,2.90625,2.185671806335449
03-07-1990,2.875,2.9375,308800,2.9375,2.875,2.16217041015625
05-07-1990,2.8125,2.84375,596800,2.84375,2.828125,2.1269168853759766
06-07-1990,2.78125,2.78125,82400,2.796875,2.796875,2.103415012359619
09-07-1990,2.75,2.796875,724800,2.8125,2.78125,2.0916645526885986
10-07-1990,2.765625,2.78125,1073600,2.78125,2.78125,2.096374988555908
11-07-1990,2.78125,2.78125,776000,2.8125,2.796875,2.1081535816192627
12-07-1990,2.796875,2.796875,1208800,2.90625,2.875,2.1670384407043457
13-07-1990,2.90625,2.90625,568000,3.0,2.96875,2.237703561782837
16-07-1990,2.96875,2.984375,680800,3.0,2.96875,2.237703561782837
17-07-1990,2.921875,2.96875,102400,2.96875,2.921875,2.202371835708618
18-07-1990,2.84375,2.921875,348000,2.921875,2.84375,2.143484592437744
19-07-1990,2.796875,2.8125,465600,2.875,2.875,2.1670384407043457
20-07-1990,2.890625,2.890625,51200,2.90625,2.890625,2.1788156032562256
23-07-1990,2.859375,2.875,349600,2.9375,2.9375,2.2141480445861816
24-07-1990,2.90625,2.90625,353600,3.015625,2.984375,2.249480724334717
25-07-1990,3.0,3.015625,52000,3.03125,3.03125,2.284813165664673
26-07-1990,3.03125,3.0625,80000,3.0625,3.0625,2.308368682861328
27-07-1990,2.984375,3.03125,75200,3.0625,2.984375,2.249480724334717
30-07-1990,2.984375,3.0,160800,3.0,3.0,2.261258125305176
31-07-1990,2.953125,2.953125,175200,3.015625,3.0,2.261258125305176
01-08-1990,3.0,3.03125,134400,3.0625,3.015625,2.2730355262756348
02-08-1990,3.03125,3.125,1056800,3.171875,3.171875,2.3908090591430664
03-08-1990,3.109375,3.15625,1272000,3.265625,3.203125,2.414365530014038
06-08-1990,3.125,3.25,247200,3.265625,3.125,2.3554770946502686
07-08-1990,3.125,3.125,148800,3.140625,3.140625,2.367255687713623
08-08-1990,3.09375,3.125,170400,3.140625,3.09375,2.3319220542907715
09-08-1990,3.0625,3.09375,296000,3.09375,3.09375,2.3319220542907715
10-08-1990,3.09375,3.09375,299200,3.109375,3.09375,2.3319220542907715
13-08-1990,3.078125,3.109375,56800,3.125,3.078125,2.320145845413208
14-08-1990,3.0625,3.109375,49600,3.109375,3.0625,2.308368682861328
15-08-1990,3.0625,3.0625,196000,3.15625,3.125,2.3554770946502686
16-08-1990,3.078125,3.109375,140000,3.125,3.109375,2.3436999320983887
17-08-1990,3.125,3.140625,201600,3.1875,3.140625,2.367255687713623
20-08-1990,3.046875,3.15625,239200,3.15625,3.046875,2.2965900897979736
21-08-1990,3.0625,3.0625,452000,3.09375,3.078125,2.320145845413208
22-08-1990,3.015625,3.0625,333600,3.09375,3.015625,2.2730355262756348
23-08-1990,2.9375,3.0,364000,3.0,2.96875,2.237703561782837
24-08-1990,2.921875,2.921875,326400,3.0,3.0,2.261258125305176
27-08-1990,2.953125,3.0,88000,3.0,2.953125,2.225925922393799
28-08-1990,2.953125,2.953125,8000,2.984375,2.984375,2.249480724334717
29-08-1990,2.9375,3.015625,140800,3.015625,2.9375,2.2141480445861816
30-08-1990,2.90625,2.953125,65600,2.984375,2.984375,2.249480724334717
31-08-1990,2.890625,2.953125,256800,2.984375,2.921875,2.202371835708618
04-09-1990,2.9375,2.9375,20000,2.953125,2.953125,2.225925922393799
05-09-1990,2.953125,2.953125,223200,3.1875,3.171875,2.3908090591430664
06-09-1990,3.1875,3.203125,317600,3.296875,3.296875,2.4850287437438965
07-09-1990,3.296875,3.296875,160800,3.359375,3.359375,2.5321390628814697
10-09-1990,3.328125,3.328125,1408800,3.390625,3.359375,2.5321390628814697
11-09-1990,3.1875,3.375,963200,3.375,3.3125,2.496805429458618
12-09-1990,3.265625,3.34375,336000,3.34375,3.3125,2.496805429458618
13-09-1990,3.25,3.3125,405600,3.328125,3.25,2.4496967792510986
14-09-1990,3.25,3.25,209600,3.390625,3.390625,2.5556936264038086
17-09-1990,3.375,3.390625,1116000,3.46875,3.46875,2.614579200744629
18-09-1990,3.46875,3.46875,776800,3.765625,3.671875,2.767686367034912
19-09-1990,3.65625,3.6875,1624800,3.6875,3.65625,2.7559077739715576
20-09-1990,3.53125,3.65625,432000,3.65625,3.53125,2.661689043045044
21-09-1990,3.46875,3.484375,521600,3.5625,3.5625,2.685244083404541
24-09-1990,3.484375,3.5625,112800,3.5625,3.515625,2.6499123573303223
25-09-1990,3.5,3.5,221600,3.515625,3.515625,2.6499123573303223
26-09-1990,3.453125,3.515625,55200,3.515625,3.46875,2.614579200744629
27-09-1990,3.375,3.4375,72800,3.453125,3.375,2.543914794921875
28-09-1990,3.28125,3.375,163200,3.375,3.34375,2.5203616619110107
01-10-1990,3.296875,3.328125,455200,3.390625,3.34375,2.5203616619110107
02-10-1990,3.328125,3.359375,72000,3.359375,3.359375,2.5321390628814697
03-10-1990,3.3125,3.34375,26400,3.34375,3.34375,2.5203616619110107
04-10-1990,3.25,3.34375,313600,3.34375,3.25,2.4496967792510986
05-10-1990,3.1875,3.234375,550400,3.296875,3.1875,2.4025871753692627
08-10-1990,3.1875,3.203125,411200,3.234375,3.1875,2.4025871753692627
09-10-1990,3.203125,3.203125,298400,3.375,3.34375,2.525312662124634
10-10-1990,3.21875,3.34375,200000,3.34375,3.234375,2.4427099227905273
11-10-1990,3.203125,3.25,34400,3.25,3.21875,2.4309089183807373
12-10-1990,3.171875,3.1875,89600,3.203125,3.203125,2.4191086292266846
15-10-1990,3.15625,3.203125,36800,3.203125,3.15625,2.3837060928344727
16-10-1990,3.109375,3.140625,153600,3.15625,3.109375,2.3483049869537354
17-10-1990,3.09375,3.109375,11200,3.125,3.125,2.360105514526367
18-10-1990,3.109375,3.109375,113600,3.125,3.109375,2.3483049869537354
19-10-1990,3.078125,3.109375,36800,3.109375,3.09375,2.3365042209625244
22-10-1990,3.0625,3.109375,68000,3.109375,3.0625,2.3129029273986816
23-10-1990,3.0625,3.0625,17600,3.109375,3.109375,2.3483049869537354
24-10-1990,3.125,3.125,120000,3.15625,3.15625,2.3837060928344727
25-10-1990,3.1875,3.1875,112800,3.328125,3.328125,2.513512372970581
26-10-1990,3.3125,3.3125,22400,3.359375,3.359375,2.5371134281158447
29-10-1990,3.359375,3.375,16000,3.375,3.359375,2.5371134281158447
30-10-1990,3.28125,3.34375,29600,3.359375,3.296875,2.489910840988159
31-10-1990,3.3125,3.3125,366400,3.453125,3.375,2.548914670944214
01-11-1990,3.359375,3.375,163200,3.375,3.375,2.548914670944214
02-11-1990,3.375,3.375,469600,3.53125,3.5,2.6433186531066895
05-11-1990,3.46875,3.53125,426400,3.546875,3.46875,2.619715929031372
06-11-1990,3.421875,3.484375,8800,3.484375,3.421875,2.5843148231506348
07-11-1990,3.375,3.421875,148000,3.421875,3.375,2.548914670944214
08-11-1990,3.34375,3.34375,37600,3.390625,3.390625,2.56071400642395
09-11-1990,3.375,3.375,397600,3.4375,3.421875,2.5843148231506348
12-11-1990,3.328125,3.390625,76800,3.390625,3.328125,2.513512372970581
13-11-1990,3.109375,3.15625,208000,3.15625,3.109375,2.3483049869537354
14-11-1990,3.109375,3.125,75200,3.1875,3.1875,2.4073076248168945
15-11-1990,3.125,3.15625,45600,3.171875,3.140625,2.371906042098999
16-11-1990,3.09375,3.140625,300800,3.15625,3.15625,2.3837060928344727
19-11-1990,2.984375,3.15625,456800,3.15625,2.984375,2.2539007663726807
20-11-1990,2.84375,2.96875,329600,2.96875,2.921875,2.2066988945007324
21-11-1990,2.890625,2.90625,32800,2.96875,2.96875,2.242100715637207
23-11-1990,2.96875,2.96875,18400,2.984375,2.96875,2.242100715637207
26-11-1990,2.96875,2.984375,40000,3.0,2.96875,2.242100715637207
27-11-1990,2.9375,2.984375,39200,2.984375,2.953125,2.230300188064575
28-11-1990,2.90625,2.953125,145600,2.953125,2.921875,2.2066988945007324
29-11-1990,2.90625,2.90625,36800,2.90625,2.90625,2.1948962211608887
30-11-1990,2.765625,2.875,236000,2.890625,2.8125,2.1240952014923096
03-12-1990,2.609375,2.796875,366400,2.796875,2.75,2.0768930912017822
04-12-1990,2.671875,2.734375,230400,2.734375,2.71875,2.0532920360565186
05-12-1990,2.71875,2.71875,432000,2.796875,2.78125,2.1004934310913086
06-12-1990,2.734375,2.78125,248800,2.8125,2.75,2.0768930912017822
07-12-1990,2.625,2.71875,257600,2.71875,2.71875,2.0532920360565186
10-12-1990,2.703125,2.734375,179200,2.734375,2.71875,2.0532920360565186
11-12-1990,2.703125,2.703125,981600,2.78125,2.734375,2.065092086791992
12-12-1990,2.734375,2.75,493600,2.78125,2.78125,2.1004934310913086
13-12-1990,2.71875,2.75,908000,2.75,2.71875,2.0532920360565186
14-12-1990,2.65625,2.71875,207200,2.78125,2.78125,2.1004934310913086
17-12-1990,2.734375,2.796875,89600,2.828125,2.734375,2.065092086791992
18-12-1990,2.703125,2.765625,153600,2.796875,2.703125,2.0414912700653076
19-12-1990,2.640625,2.703125,277600,2.734375,2.640625,1.994288444519043
20-12-1990,2.546875,2.609375,1007200,2.609375,2.5625,1.935285210609436
21-12-1990,2.484375,2.484375,980000,2.515625,2.5,1.8880845308303833
24-12-1990,2.5,2.5,222400,2.546875,2.546875,1.923486351966858
26-12-1990,2.5625,2.5625,93600,2.75,2.75,2.0768930912017822
27-12-1990,2.71875,2.75,51200,2.75,2.734375,2.065092086791992
28-12-1990,2.65625,2.71875,49600,2.71875,2.65625,2.0060887336730957
31-12-1990,2.53125,2.65625,364800,2.65625,2.65625,2.0060887336730957
02-01-1991,2.59375,2.625,36000,2.625,2.59375,1.9588861465454102
03-01-1991,2.484375,2.59375,413600,2.59375,2.484375,1.8762837648391724
04-01-1991,2.328125,2.4375,216800,2.4375,2.328125,1.7582777738571167
07-01-1991,2.21875,2.296875,599200,2.3125,2.265625,1.711076021194458
08-01-1991,2.15625,2.25,679200,2.265625,2.15625,1.6284722089767456
09-01-1991,2.140625,2.171875,572000,2.1875,2.140625,1.6213722229003906
10-01-1991,2.09375,2.125,296000,2.140625,2.140625,1.6213722229003906
11-01-1991,2.109375,2.109375,278400,2.21875,2.21875,1.6805458068847656
14-01-1991,2.21875,2.234375,172800,2.265625,2.25,1.7042156457901
15-01-1991,2.171875,2.25,92800,2.25,2.234375,1.6923807859420776
16-01-1991,2.171875,2.234375,50400,2.25,2.203125,1.668710708618164
17-01-1991,2.03125,2.1875,1341600,2.25,2.203125,1.668710708618164
18-01-1991,2.15625,2.203125,275200,2.21875,2.1875,1.6568763256072998
21-01-1991,2.0625,2.15625,550400,2.15625,2.125,1.6095366477966309
22-01-1991,2.125,2.15625,174400,2.171875,2.125,1.6095366477966309
23-01-1991,2.140625,2.140625,837600,2.265625,2.25,1.7042156457901
24-01-1991,2.265625,2.3125,495200,2.34375,2.28125,1.7278859615325928
25-01-1991,2.21875,2.3125,817600,2.375,2.25,1.7042156457901
28-01-1991,2.203125,2.28125,679200,2.296875,2.234375,1.6923807859420776
29-01-1991,2.25,2.25,99200,2.265625,2.25,1.7042156457901
30-01-1991,2.203125,2.21875,132000,2.25,2.234375,1.6923807859420776
31-01-1991,2.15625,2.21875,384800,2.21875,2.171875,1.6450403928756714
01-02-1991,2.15625,2.15625,869600,2.21875,2.21875,1.6805458068847656
04-02-1991,2.203125,2.21875,961600,2.28125,2.25,1.7042156457901
05-02-1991,2.25,2.25,1217600,2.375,2.28125,1.7278859615325928
06-02-1991,2.28125,2.28125,1186400,2.5,2.484375,1.881737470626831
07-02-1991,2.546875,2.546875,1224000,2.78125,2.6875,2.0355920791625977
08-02-1991,2.640625,2.65625,94400,2.6875,2.671875,2.023756504058838
11-02-1991,2.640625,2.6875,307200,2.75,2.703125,2.0474257469177246
12-02-1991,2.59375,2.734375,216000,2.734375,2.59375,1.96458101272583
13-02-1991,2.625,2.625,45600,2.703125,2.703125,2.0474257469177246
14-02-1991,2.515625,2.6875,148800,2.6875,2.515625,1.9054083824157715
15-02-1991,2.484375,2.484375,356800,2.609375,2.609375,1.9764162302017212
19-02-1991,2.515625,2.59375,160800,2.59375,2.546875,1.9290777444839478
20-02-1991,2.515625,2.546875,219200,2.625,2.625,1.9882515668869019
21-02-1991,2.59375,2.609375,188000,2.625,2.59375,1.96458101272583
22-02-1991,2.453125,2.59375,408000,2.59375,2.453125,1.858067274093628
25-02-1991,2.328125,2.453125,88800,2.453125,2.328125,1.7633893489837646
26-02-1991,2.265625,2.3125,776800,2.328125,2.3125,1.751554250717163
27-02-1991,2.34375,2.34375,1544000,2.453125,2.4375,1.8462345600128174
28-02-1991,2.453125,2.46875,578400,2.59375,2.59375,1.96458101272583
01-03-1991,2.53125,2.59375,692800,2.59375,2.546875,1.9290777444839478
04-03-1991,2.546875,2.546875,555200,2.609375,2.59375,1.96458101272583
05-03-1991,2.5625,2.5625,418400,2.578125,2.578125,1.9527475833892822
06-03-1991,2.546875,2.546875,180800,2.59375,2.5625,1.9409122467041016
07-03-1991,2.5625,2.5625,280800,2.625,2.625,1.9882515668869019
08-03-1991,2.59375,2.625,442400,2.78125,2.671875,2.023756504058838
11-03-1991,2.6875,2.6875,116000,2.75,2.71875,2.059260845184326
12-03-1991,2.6875,2.75,163200,2.75,2.6875,2.0355920791625977
13-03-1991,2.59375,2.671875,147200,2.671875,2.59375,1.96458101272583
14-03-1991,2.546875,2.578125,184000,2.59375,2.5625,1.9409122467041016
15-03-1991,2.546875,2.546875,289600,2.65625,2.625,1.9882515668869019
18-03-1991,2.625,2.640625,136000,2.6875,2.6875,2.0355920791625977
19-03-1991,2.609375,2.65625,172000,2.65625,2.625,1.9882515668869019
20-03-1991,2.625,2.625,71200,2.65625,2.65625,2.011920213699341
21-03-1991,2.65625,2.671875,327200,2.734375,2.734375,2.0710959434509277
22-03-1991,2.703125,2.734375,93600,2.734375,2.703125,2.0474257469177246
25-03-1991,2.640625,2.71875,115200,2.71875,2.703125,2.0474257469177246
26-03-1991,2.625,2.671875,447200,2.6875,2.65625,2.011920213699341
27-03-1991,2.578125,2.640625,86400,2.640625,2.578125,1.9527475833892822
28-03-1991,2.515625,2.578125,70400,2.59375,2.515625,1.9054083824157715
01-04-1991,2.453125,2.53125,128000,2.53125,2.453125,1.858067274093628
02-04-1991,2.359375,2.46875,367200,2.46875,2.375,1.7988946437835693
03-04-1991,2.3125,2.359375,1358400,2.4375,2.3125,1.751554250717163
04-04-1991,2.34375,2.34375,1049600,2.40625,2.40625,1.8225629329681396
05-04-1991,2.421875,2.421875,73600,2.484375,2.484375,1.881737470626831
08-04-1991,2.4375,2.46875,24000,2.46875,2.4375,1.8462345600128174
09-04-1991,2.375,2.40625,198400,2.4375,2.4375,1.8462345600128174
10-04-1991,2.34375,2.421875,198400,2.421875,2.390625,1.8153842687606812
11-04-1991,2.359375,2.40625,255200,2.4375,2.40625,1.82724928855896
12-04-1991,2.390625,2.40625,398400,2.46875,2.46875,1.8747106790542603
15-04-1991,2.5,2.5,258400,2.5625,2.546875,1.9340370893478394
16-04-1991,2.53125,2.53125,468000,2.640625,2.625,1.9933624267578125
17-04-1991,2.578125,2.640625,662400,2.640625,2.578125,1.9577667713165283
18-04-1991,2.609375,2.609375,68800,2.640625,2.625,1.9933624267578125
19-04-1991,2.5625,2.609375,20000,2.625,2.578125,1.9577667713165283
22-04-1991,2.484375,2.578125,263200,2.578125,2.5,1.898440957069397
23-04-1991,2.453125,2.484375,69600,2.5,2.5,1.898440957069397
24-04-1991,2.46875,2.5,44800,2.5,2.5,1.898440957069397
25-04-1991,2.46875,2.484375,70400,2.484375,2.46875,1.8747106790542603
26-04-1991,2.421875,2.453125,24000,2.453125,2.4375,1.8509801626205444
29-04-1991,2.34375,2.421875,373600,2.421875,2.34375,1.7797878980636597
30-04-1991,2.328125,2.375,1024800,2.375,2.375,1.8035178184509277
01-05-1991,2.34375,2.375,403200,2.421875,2.421875,1.8391149044036865
02-05-1991,2.375,2.40625,714400,2.40625,2.375,1.8035178184509277
03-05-1991,2.359375,2.40625,464000,2.4375,2.390625,1.8153842687606812
06-05-1991,2.359375,2.375,11200,2.375,2.359375,1.7916535139083862
07-05-1991,2.28125,2.375,360800,2.375,2.34375,1.7797878980636597
08-05-1991,2.328125,2.34375,567200,2.453125,2.4375,1.8509801626205444
09-05-1991,2.40625,2.453125,150400,2.46875,2.46875,1.8747106790542603
10-05-1991,2.375,2.453125,88800,2.453125,2.375,1.8035178184509277
13-05-1991,2.28125,2.359375,872000,2.359375,2.28125,1.7323273420333862
14-05-1991,2.28125,2.28125,366400,2.375,2.3125,1.7560580968856812
15-05-1991,2.3125,2.3125,276000,2.40625,2.390625,1.8153842687606812
16-05-1991,2.421875,2.453125,404000,2.46875,2.421875,1.8391149044036865
17-05-1991,2.390625,2.421875,25600,2.421875,2.40625,1.82724928855896
20-05-1991,2.390625,2.40625,121600,2.4375,2.40625,1.82724928855896
21-05-1991,2.34375,2.4375,480800,2.4375,2.375,1.8035178184509277
22-05-1991,2.375,2.375,31200,2.390625,2.390625,1.8153842687606812
23-05-1991,2.375,2.40625,240800,2.421875,2.40625,1.82724928855896
24-05-1991,2.375,2.421875,160800,2.453125,2.390625,1.8153842687606812
28-05-1991,2.375,2.375,60000,2.453125,2.4375,1.8509801626205444
29-05-1991,2.421875,2.4375,334400,2.4375,2.4375,1.8509801626205444
30-05-1991,2.421875,2.4375,521600,2.5,2.5,1.898440957069397
31-05-1991,2.53125,2.53125,1612000,2.625,2.625,1.9933624267578125
03-06-1991,2.609375,2.65625,256000,2.6875,2.625,1.9933624267578125
04-06-1991,2.625,2.65625,1272800,2.671875,2.625,1.9933624267578125
05-06-1991,2.578125,2.625,141600,2.625,2.578125,1.9577667713165283
06-06-1991,2.5625,2.5625,201600,2.609375,2.59375,1.969632625579834
07-06-1991,2.53125,2.59375,473600,2.59375,2.53125,1.9221713542938232
10-06-1991,2.53125,2.546875,168000,2.5625,2.53125,1.9221713542938232
11-06-1991,2.4375,2.53125,155200,2.53125,2.5,1.898440957069397
12-06-1991,2.484375,2.5,51200,2.5,2.5,1.898440957069397
13-06-1991,2.484375,2.5,1600,2.5,2.484375,1.8865761756896973
14-06-1991,2.46875,2.46875,83200,2.46875,2.46875,1.8747106790542603
17-06-1991,2.453125,2.46875,21600,2.46875,2.453125,1.862845778465271
18-06-1991,2.4375,2.46875,341600,2.46875,2.46875,1.8747106790542603
19-06-1991,2.46875,2.46875,170400,2.5,2.5,1.898440957069397
20-06-1991,2.375,2.4375,30400,2.4375,2.375,1.8035178184509277
21-06-1991,2.3125,2.34375,251200,2.375,2.34375,1.7797878980636597
24-06-1991,2.3125,2.359375,124800,2.375,2.375,1.8035178184509277
25-06-1991,2.359375,2.375,39200,2.375,2.359375,1.7916535139083862
26-06-1991,2.296875,2.328125,188000,2.359375,2.3125,1.7560580968856812
27-06-1991,2.28125,2.3125,260800,2.34375,2.3125,1.7560580968856812
28-06-1991,2.25,2.3125,418400,2.3125,2.25,1.70859694480896
01-07-1991,2.203125,2.25,188800,2.25,2.203125,1.6730009317398071
02-07-1991,2.21875,2.21875,127200,2.25,2.234375,1.696731686592102
03-07-1991,2.203125,2.203125,267200,2.28125,2.25,1.70859694480896
05-07-1991,2.25,2.25,3200,2.25,2.25,1.70859694480896
08-07-1991,2.25,2.25,192800,2.296875,2.296875,1.7441917657852173
09-07-1991,2.234375,2.28125,359200,2.3125,2.265625,1.7251564264297485
10-07-1991,2.234375,2.25,56000,2.25,2.234375,1.701361060142517
11-07-1991,2.25,2.25,152800,2.328125,2.3125,1.7608493566513062
12-07-1991,2.28125,2.34375,1025600,2.359375,2.296875,1.7489508390426636
15-07-1991,2.328125,2.328125,791200,2.375,2.375,1.808438777923584
16-07-1991,2.34375,2.359375,1204800,2.421875,2.421875,1.8441327810287476
17-07-1991,2.4375,2.453125,1052000,2.59375,2.59375,1.9750069379806519
18-07-1991,2.625,2.625,304800,2.671875,2.671875,2.034493923187256
19-07-1991,2.609375,2.671875,73600,2.671875,2.625,1.998801350593567
22-07-1991,2.5625,2.625,72000,2.625,2.59375,1.9750069379806519
23-07-1991,2.578125,2.609375,124000,2.625,2.578125,1.9631086587905884
24-07-1991,2.578125,2.578125,39200,2.59375,2.578125,1.9631086587905884
25-07-1991,2.5625,2.5625,232800,2.578125,2.5625,1.9512110948562622
26-07-1991,2.5625,2.5625,226400,2.59375,2.59375,1.9750069379806519
29-07-1991,2.59375,2.609375,6400,2.609375,2.609375,1.9869043827056885
30-07-1991,2.59375,2.59375,582400,2.65625,2.625,1.998801350593567
31-07-1991,2.53125,2.5625,698400,2.578125,2.53125,1.9274159669876099
01-08-1991,2.53125,2.53125,248800,2.578125,2.5625,1.9512110948562622
02-08-1991,2.546875,2.546875,71200,2.546875,2.546875,1.9393141269683838
05-08-1991,2.546875,2.5625,96800,2.578125,2.5625,1.9512110948562622
06-08-1991,2.5625,2.5625,457600,2.625,2.59375,1.9750069379806519
07-08-1991,2.59375,2.59375,733600,2.625,2.625,1.998801350593567
08-08-1991,2.625,2.640625,413600,2.6875,2.640625,2.0106985569000244
09-08-1991,2.625,2.625,111200,2.65625,2.65625,2.022597551345825
12-08-1991,2.640625,2.6875,223200,2.703125,2.65625,2.022597551345825
13-08-1991,2.640625,2.640625,118400,2.6875,2.6875,2.0463931560516357
14-08-1991,2.671875,2.671875,372000,2.75,2.75,2.0939836502075195
15-08-1991,2.71875,2.75,369600,2.75,2.75,2.0939836502075195
16-08-1991,2.703125,2.734375,490400,2.734375,2.703125,2.05828857421875
19-08-1991,2.609375,2.671875,91200,2.671875,2.609375,1.9869043827056885
20-08-1991,2.609375,2.609375,22400,2.625,2.625,1.998801350593567
21-08-1991,2.609375,2.625,78400,2.625,2.625,1.998801350593567
22-08-1991,2.5625,2.640625,292800,2.640625,2.59375,1.9750069379806519
23-08-1991,2.59375,2.59375,1125600,2.75,2.75,2.0939836502075195
26-08-1991,2.734375,2.75,183200,2.78125,2.75,2.0939836502075195
27-08-1991,2.75,2.75,362400,2.84375,2.8125,2.141573190689087
28-08-1991,2.828125,2.84375,203200,2.953125,2.9375,2.2367539405822754
29-08-1991,2.921875,2.921875,416800,3.0,2.953125,2.248652935028076
30-08-1991,2.90625,2.96875,236800,2.96875,2.921875,2.2248573303222656
03-09-1991,2.78125,2.890625,230400,2.890625,2.78125,2.117779016494751
04-09-1991,2.75,2.765625,175200,2.8125,2.765625,2.1058802604675293
05-09-1991,2.796875,2.796875,309600,2.828125,2.8125,2.141573190689087
06-09-1991,2.78125,2.8125,55200,2.828125,2.828125,2.153470277786255
09-09-1991,2.8125,2.8125,8000,2.84375,2.84375,2.1653683185577393
10-09-1991,2.8125,2.828125,452800,2.84375,2.84375,2.1653683185577393
11-09-1991,2.8125,2.828125,145600,2.84375,2.84375,2.1653683185577393
12-09-1991,2.84375,2.859375,48000,2.859375,2.84375,2.1653683185577393
13-09-1991,2.828125,2.875,366400,2.875,2.84375,2.1653683185577393
16-09-1991,2.828125,2.859375,433600,2.859375,2.84375,2.1653683185577393
17-09-1991,2.84375,2.84375,648800,2.890625,2.890625,2.201061725616455
18-09-1991,2.90625,2.90625,136800,2.9375,2.9375,2.2367539405822754
19-09-1991,2.921875,2.953125,153600,3.03125,3.03125,2.308140277862549
20-09-1991,3.0,3.078125,312000,3.078125,3.03125,2.308140277862549
23-09-1991,2.96875,3.0625,113600,3.0625,2.96875,2.260549306869507
24-09-1991,2.875,2.96875,77600,2.96875,2.875,2.1891632080078125
25-09-1991,2.875,2.890625,7200,2.890625,2.875,2.1891632080078125
26-09-1991,2.875,2.90625,296000,2.953125,2.953125,2.248652935028076
27-09-1991,2.953125,2.96875,70400,3.0,2.96875,2.260549306869507
30-09-1991,2.953125,2.953125,229600,2.984375,2.984375,2.272446632385254
01-10-1991,2.859375,2.984375,1317600,3.0,2.859375,2.177266836166382
02-10-1991,2.84375,2.84375,740800,2.9375,2.90625,2.212958812713623
03-10-1991,2.890625,2.90625,106400,2.90625,2.890625,2.201061725616455
04-10-1991,2.859375,2.875,599200,2.890625,2.890625,2.201061725616455
07-10-1991,2.859375,2.875,973600,2.9375,2.9375,2.2367539405822754
08-10-1991,2.90625,2.9375,735200,2.953125,2.9375,2.241523504257202
09-10-1991,2.90625,2.9375,43200,2.9375,2.90625,2.217677354812622
10-10-1991,2.875,2.90625,144000,2.921875,2.90625,2.217677354812622
11-10-1991,2.90625,2.921875,23200,2.921875,2.921875,2.229600191116333
14-10-1991,2.9375,2.9375,32000,2.984375,2.96875,2.265369415283203
15-10-1991,2.984375,2.984375,181600,3.015625,3.015625,2.301137924194336
16-10-1991,3.0,3.046875,104000,3.078125,3.0,2.289215564727783
17-10-1991,2.984375,3.0,89600,3.03125,3.03125,2.313061475753784
18-10-1991,3.0,3.046875,87200,3.046875,3.0,2.289215564727783
21-10-1991,2.984375,2.984375,3200,2.984375,2.984375,2.2772927284240723
22-10-1991,2.875,2.953125,495200,2.953125,2.875,2.1938302516937256
23-10-1991,2.890625,2.953125,95200,2.953125,2.890625,2.205754518508911
24-10-1991,2.84375,2.875,35200,2.875,2.84375,2.169985294342041
25-10-1991,2.75,2.8125,277600,2.8125,2.765625,2.110369920730591
28-10-1991,2.75,2.75,181600,2.84375,2.84375,2.169985294342041
29-10-1991,2.75,2.859375,404800,2.859375,2.765625,2.110369920730591
30-10-1991,2.78125,2.78125,12800,2.796875,2.796875,2.1342172622680664
31-10-1991,2.796875,2.8125,37600,2.84375,2.84375,2.169985294342041
01-11-1991,2.84375,2.859375,62400,2.9375,2.9375,2.241523504257202
04-11-1991,2.921875,2.921875,624800,3.078125,3.03125,2.313061475753784
05-11-1991,3.046875,3.046875,421600,3.140625,3.109375,2.3726754188537598
06-11-1991,3.03125,3.140625,228000,3.140625,3.03125,2.313061475753784
07-11-1991,3.0,3.046875,206400,3.046875,3.03125,2.313061475753784
08-11-1991,3.015625,3.015625,96800,3.0625,3.0625,2.336907148361206
11-11-1991,3.03125,3.0625,20000,3.0625,3.03125,2.313061475753784
12-11-1991,3.0,3.0,71200,3.046875,3.03125,2.313061475753784
13-11-1991,3.03125,3.03125,127200,3.140625,3.125,2.384598970413208
14-11-1991,3.015625,3.125,102400,3.125,3.03125,2.313061475753784
15-11-1991,2.890625,3.015625,141600,3.015625,2.9375,2.241523504257202
18-11-1991,2.875,2.9375,236800,2.9375,2.875,2.1938302516937256
19-11-1991,2.8125,2.890625,143200,2.890625,2.8125,2.146139621734619
20-11-1991,2.78125,2.796875,144000,2.796875,2.78125,2.1222939491271973
21-11-1991,2.78125,2.78125,202400,2.84375,2.796875,2.1342172622680664
22-11-1991,2.75,2.78125,97600,2.78125,2.75,2.098447799682617
25-11-1991,2.75,2.75,16800,2.765625,2.765625,2.110369920730591
26-11-1991,2.609375,2.75,346400,2.75,2.625,2.0030620098114014
27-11-1991,2.625,2.640625,76800,2.65625,2.625,2.0030620098114014
29-11-1991,2.640625,2.640625,28800,2.65625,2.65625,2.0269100666046143
02-12-1991,2.59375,2.65625,299200,2.671875,2.59375,1.979217529296875
03-12-1991,2.59375,2.59375,97600,2.65625,2.65625,2.0269100666046143
04-12-1991,2.625,2.65625,20800,2.65625,2.625,2.0030620098114014
05-12-1991,2.625,2.625,96800,2.6875,2.640625,2.014986276626587
06-12-1991,2.640625,2.640625,858400,2.65625,2.640625,2.014986276626587
09-12-1991,2.59375,2.625,57600,2.625,2.59375,1.979217529296875
10-12-1991,2.484375,2.5625,171200,2.5625,2.5,1.9076800346374512
11-12-1991,2.453125,2.515625,415200,2.5625,2.546875,1.9434491395950317
12-12-1991,2.515625,2.515625,124000,2.53125,2.53125,1.9315259456634521
13-12-1991,2.5,2.53125,319200,2.53125,2.5,1.9076800346374512
16-12-1991,2.484375,2.5,372800,2.515625,2.515625,1.9196019172668457
17-12-1991,2.515625,2.515625,683200,2.53125,2.53125,1.9315259456634521
18-12-1991,2.546875,2.546875,112800,2.578125,2.578125,1.9672942161560059
19-12-1991,2.53125,2.5625,392800,2.5625,2.546875,1.9434491395950317
20-12-1991,2.5,2.53125,164800,2.53125,2.515625,1.9196019172668457
23-12-1991,2.421875,2.5,1115200,2.5,2.421875,1.84806489944458
24-12-1991,2.40625,2.421875,107200,2.515625,2.515625,1.9196019172668457
26-12-1991,2.5,2.5,15200,2.515625,2.5,1.9076800346374512
27-12-1991,2.46875,2.5,48000,2.5,2.46875,1.8838332891464233
30-12-1991,2.421875,2.46875,920800,2.46875,2.4375,1.8599882125854492
31-12-1991,2.421875,2.4375,116000,2.484375,2.4375,1.8599882125854492
02-01-1992,2.390625,2.421875,732000,2.421875,2.390625,1.824218511581421
03-01-1992,2.375,2.390625,277600,2.390625,2.375,1.812294602394104
06-01-1992,2.3125,2.390625,528000,2.390625,2.328125,1.7765254974365234
07-01-1992,2.140625,2.3125,584000,2.3125,2.140625,1.6334508657455444
08-01-1992,2.109375,2.125,692800,2.203125,2.125,1.6215276718139648
09-01-1992,2.109375,2.125,348000,2.171875,2.171875,1.6621859073638916
10-01-1992,2.140625,2.15625,840800,2.234375,2.234375,1.7100193500518799
13-01-1992,2.234375,2.234375,456000,2.328125,2.296875,1.757850170135498
14-01-1992,2.21875,2.296875,281600,2.3125,2.21875,1.6980592012405396
15-01-1992,2.234375,2.234375,377600,2.296875,2.28125,1.7458924055099487
16-01-1992,2.28125,2.28125,80800,2.328125,2.328125,1.7817662954330444
17-01-1992,2.359375,2.359375,47200,2.421875,2.421875,1.8535170555114746
20-01-1992,2.421875,2.421875,91200,2.53125,2.515625,1.925264596939087
21-01-1992,2.515625,2.53125,578400,2.546875,2.515625,1.925264596939087
22-01-1992,2.484375,2.515625,300000,2.515625,2.484375,1.9013490676879883
23-01-1992,2.453125,2.46875,313600,2.5,2.453125,1.877431869506836
24-01-1992,2.3125,2.453125,1104800,2.453125,2.3125,1.7698091268539429
27-01-1992,2.25,2.296875,292800,2.296875,2.265625,1.733934760093689
28-01-1992,2.1875,2.265625,2736800,2.265625,2.1875,1.6741433143615723
29-01-1992,2.15625,2.203125,463200,2.25,2.203125,1.6861017942428589
30-01-1992,2.140625,2.140625,405600,2.21875,2.1875,1.6741433143615723
31-01-1992,2.1875,2.203125,714400,2.296875,2.25,1.7219758033752441
03-02-1992,2.21875,2.265625,96800,2.265625,2.234375,1.7100193500518799
04-02-1992,2.1875,2.21875,355200,2.234375,2.203125,1.6861017942428589
05-02-1992,2.15625,2.203125,604000,2.203125,2.171875,1.6621859073638916
06-02-1992,2.09375,2.1875,492800,2.1875,2.09375,1.6023943424224854
07-02-1992,2.078125,2.078125,704000,2.21875,2.21875,1.6980592012405396
10-02-1992,2.234375,2.234375,782400,2.34375,2.328125,1.7817662954330444
11-02-1992,2.3125,2.328125,241600,2.34375,2.3125,1.7698091268539429
12-02-1992,2.28125,2.3125,446400,2.328125,2.3125,1.7698091268539429
13-02-1992,2.296875,2.3125,161600,2.3125,2.296875,1.757850170135498
14-02-1992,2.28125,2.296875,190400,2.328125,2.328125,1.7817662954330444
18-02-1992,2.28125,2.3125,504800,2.3125,2.296875,1.757850170135498
19-02-1992,2.265625,2.28125,20800,2.28125,2.265625,1.733934760093689
20-02-1992,2.265625,2.265625,260800,2.296875,2.296875,1.757850170135498
21-02-1992,2.296875,2.296875,311200,2.328125,2.3125,1.7698091268539429
24-02-1992,2.3125,2.328125,249600,2.34375,2.3125,1.7698091268539429
25-02-1992,2.28125,2.3125,144000,2.3125,2.28125,1.7458924055099487
26-02-1992,2.25,2.265625,835200,2.265625,2.265625,1.733934760093689
27-02-1992,2.25,2.25,67200,2.296875,2.265625,1.733934760093689
28-02-1992,2.234375,2.234375,321600,2.265625,2.234375,1.7100193500518799
02-03-1992,2.25,2.25,588800,2.296875,2.25,1.7219758033752441
03-03-1992,2.25,2.265625,608800,2.28125,2.25,1.7219758033752441
04-03-1992,2.234375,2.234375,488000,2.25,2.25,1.7219758033752441
05-03-1992,2.265625,2.265625,607200,2.28125,2.28125,1.7458924055099487
06-03-1992,2.28125,2.28125,404800,2.296875,2.28125,1.7458924055099487
09-03-1992,2.28125,2.28125,348000,2.328125,2.328125,1.7817662954330444
10-03-1992,2.328125,2.328125,348000,2.40625,2.390625,1.829599380493164
11-03-1992,2.390625,2.40625,376000,2.40625,2.40625,1.8415582180023193
12-03-1992,2.40625,2.4375,347200,2.4375,2.40625,1.8415582180023193
13-03-1992,2.421875,2.4375,138400,2.46875,2.46875,1.8893908262252808
16-03-1992,2.40625,2.5,122400,2.5,2.40625,1.8415582180023193
17-03-1992,2.421875,2.4375,569600,2.4375,2.4375,1.8654747009277344
18-03-1992,2.40625,2.421875,46400,2.421875,2.40625,1.8415582180023193
19-03-1992,2.375,2.4375,394400,2.4375,2.40625,1.8415582180023193
20-03-1992,2.453125,2.46875,232000,2.484375,2.46875,1.8893908262252808
23-03-1992,2.5,2.5,545600,2.546875,2.5,1.9133071899414062
24-03-1992,2.5,2.5,618400,2.578125,2.5625,1.9611389636993408
25-03-1992,2.5625,2.578125,116800,2.578125,2.578125,1.973097801208496
26-03-1992,2.609375,2.609375,959200,2.734375,2.6875,2.0568056106567383
27-03-1992,2.609375,2.625,236800,2.65625,2.625,2.008971929550171
30-03-1992,2.609375,2.625,324800,2.625,2.625,2.008971929550171
31-03-1992,2.640625,2.640625,307200,2.65625,2.65625,2.0328893661499023
01-04-1992,2.609375,2.65625,172800,2.65625,2.609375,1.9970133304595947
02-04-1992,2.578125,2.609375,878400,2.609375,2.59375,1.9850558042526245
03-04-1992,2.546875,2.5625,109600,2.5625,2.5625,1.9611389636993408
06-04-1992,2.578125,2.578125,336000,2.734375,2.734375,2.092679023742676
07-04-1992,2.6875,2.734375,612000,2.734375,2.6875,2.0615174770355225
08-04-1992,2.625,2.671875,771200,2.671875,2.625,2.0135750770568848
09-04-1992,2.609375,2.609375,170400,2.75,2.75,2.1144940853118896
10-04-1992,2.734375,2.734375,213600,2.75,2.734375,2.1024792194366455
13-04-1992,2.75,2.765625,141600,2.78125,2.765625,2.126507043838501
14-04-1992,2.78125,2.78125,228000,2.8125,2.8125,2.162550449371338
15-04-1992,2.8125,2.8125,312000,2.828125,2.828125,2.174565553665161
16-04-1992,2.8125,2.8125,39200,2.828125,2.8125,2.162550449371338
20-04-1992,2.8125,2.8125,245600,2.890625,2.890625,2.222621202468872
21-04-1992,2.875,2.921875,337600,2.921875,2.90625,2.234635591506958
22-04-1992,2.875,2.890625,8800,2.890625,2.875,2.210606575012207
23-04-1992,2.84375,2.875,1366400,2.984375,2.875,2.210606575012207
24-04-1992,3.0,3.03125,687200,3.171875,3.0,2.3067214488983154
27-04-1992,3.03125,3.0625,511200,3.09375,3.046875,2.3427627086639404
28-04-1992,3.015625,3.046875,234400,3.046875,3.03125,2.330749273300171
29-04-1992,3.03125,3.046875,237600,3.046875,3.03125,2.330749273300171
30-04-1992,3.03125,3.046875,1008800,3.0625,3.046875,2.3427627086639404
01-05-1992,3.03125,3.03125,146400,3.046875,3.046875,2.3427627086639404
04-05-1992,3.0625,3.0625,251200,3.078125,3.0625,2.3547773361206055
05-05-1992,3.046875,3.046875,532000,3.078125,3.078125,2.3667914867401123
06-05-1992,3.015625,3.078125,792800,3.078125,3.015625,2.318735122680664
07-05-1992,2.96875,3.015625,61600,3.015625,2.96875,2.2826921939849854
08-05-1992,2.9375,3.0,42400,3.0,2.953125,2.270676612854004
11-05-1992,2.90625,2.953125,91200,2.953125,2.90625,2.234635591506958
12-05-1992,2.75,2.921875,1191200,2.921875,2.796875,2.15053653717041
13-05-1992,2.765625,2.796875,261600,2.796875,2.765625,2.126507043838501
14-05-1992,2.6875,2.765625,1236800,2.84375,2.84375,2.1865785121917725
15-05-1992,2.8125,2.828125,509600,2.90625,2.890625,2.222621202468872
18-05-1992,2.90625,2.90625,431200,3.015625,3.0,2.3067214488983154
19-05-1992,2.953125,3.0,572000,3.046875,3.046875,2.3427627086639404
20-05-1992,3.0625,3.0625,200800,3.09375,3.09375,2.378804922103882
21-05-1992,3.078125,3.078125,946400,3.15625,3.09375,2.378804922103882
22-05-1992,3.078125,3.09375,230400,3.15625,3.140625,2.4148483276367188
26-05-1992,3.125,3.140625,1300800,3.1875,3.1875,2.4508910179138184
27-05-1992,3.125,3.203125,1122400,3.25,3.125,2.4028334617614746
28-05-1992,3.078125,3.140625,627200,3.140625,3.125,2.4028334617614746
29-05-1992,3.078125,3.125,368800,3.125,3.09375,2.378804922103882
01-06-1992,3.078125,3.078125,348800,3.171875,3.171875,2.4388771057128906
02-06-1992,3.125,3.140625,108000,3.15625,3.140625,2.4148483276367188
03-06-1992,3.125,3.15625,1278400,3.1875,3.15625,2.426863193511963
04-06-1992,3.125,3.125,1169600,3.140625,3.140625,2.4148483276367188
05-06-1992,3.140625,3.15625,816800,3.1875,3.1875,2.4508910179138184
08-06-1992,3.21875,3.21875,1822400,3.375,3.3125,2.547003984451294
09-06-1992,3.28125,3.3125,2077600,3.34375,3.3125,2.547003984451294
10-06-1992,3.21875,3.3125,778400,3.3125,3.28125,2.522975444793701
11-06-1992,3.28125,3.28125,438400,3.40625,3.40625,2.6190884113311768
12-06-1992,3.34375,3.375,2042400,3.375,3.34375,2.5710318088531494
15-06-1992,3.296875,3.328125,2438400,3.328125,3.3125,2.547003984451294
16-06-1992,3.296875,3.328125,660800,3.328125,3.296875,2.534989833831787
17-06-1992,3.21875,3.3125,673600,3.3125,3.234375,2.4869332313537598
18-06-1992,3.21875,3.21875,948800,3.265625,3.234375,2.4869332313537598
19-06-1992,3.234375,3.25,417600,3.265625,3.234375,2.4869332313537598
22-06-1992,3.203125,3.203125,568000,3.21875,3.203125,2.462904691696167
23-06-1992,3.203125,3.203125,518400,3.21875,3.203125,2.462904691696167
24-06-1992,3.171875,3.21875,224000,3.21875,3.21875,2.474918842315674
25-06-1992,3.125,3.21875,307200,3.21875,3.125,2.4028334617614746
26-06-1992,3.109375,3.125,629600,3.140625,3.140625,2.4148483276367188
29-06-1992,3.125,3.125,1169600,3.1875,3.171875,2.4388771057128906
30-06-1992,3.15625,3.1875,1156800,3.1875,3.1875,2.4508910179138184
01-07-1992,3.203125,3.21875,694400,3.25,3.25,2.4989466667175293
02-07-1992,3.25,3.28125,2007200,3.296875,3.28125,2.522975444793701
06-07-1992,3.296875,3.3125,771200,3.328125,3.3125,2.547003984451294
07-07-1992,3.3125,3.3125,655200,3.359375,3.328125,2.55901837348938
08-07-1992,3.3125,3.328125,480800,3.34375,3.328125,2.55901837348938
09-07-1992,3.328125,3.34375,424000,3.375,3.359375,2.5879061222076416
10-07-1992,3.328125,3.390625,568800,3.390625,3.328125,2.5638325214385986
13-07-1992,3.328125,3.328125,624800,3.359375,3.359375,2.5879061222076416
14-07-1992,3.390625,3.390625,627200,3.625,3.578125,2.756420612335205
15-07-1992,3.515625,3.59375,465600,3.609375,3.53125,2.7203102111816406
16-07-1992,3.390625,3.5,143200,3.5,3.421875,2.6360535621643066
17-07-1992,3.421875,3.4375,45600,3.453125,3.4375,2.6480906009674072
20-07-1992,3.390625,3.4375,645600,3.453125,3.390625,2.611980676651001
21-07-1992,3.390625,3.390625,224000,3.421875,3.40625,2.624016761779785
22-07-1992,3.40625,3.40625,235200,3.484375,3.484375,2.6842002868652344
23-07-1992,3.46875,3.5,112000,3.515625,3.5,2.6962363719940186
24-07-1992,3.5,3.5,329600,3.609375,3.609375,2.7804956436157227
27-07-1992,3.5625,3.609375,66400,3.609375,3.59375,2.7684574127197266
28-07-1992,3.53125,3.59375,91200,3.59375,3.5625,2.744384288787842
29-07-1992,3.546875,3.5625,84800,3.578125,3.578125,2.756420612335205
30-07-1992,3.5625,3.5625,565600,3.640625,3.640625,2.8045687675476074
31-07-1992,3.625,3.640625,500800,3.65625,3.640625,2.8045687675476074
03-08-1992,3.625,3.625,492000,3.703125,3.703125,2.8527140617370605
04-08-1992,3.6875,3.6875,398400,3.71875,3.71875,2.864752769470215
05-08-1992,3.375,3.59375,268800,3.59375,3.40625,2.624016761779785
06-08-1992,3.171875,3.25,1166400,3.265625,3.25,2.503648519515991
07-08-1992,3.25,3.25,996000,3.515625,3.515625,2.7082743644714355
10-08-1992,3.5,3.515625,88000,3.5625,3.546875,2.7323482036590576
11-08-1992,3.546875,3.546875,2608000,3.5625,3.546875,2.7323482036590576
12-08-1992,3.5625,3.5625,92800,3.59375,3.59375,2.7684574127197266
13-08-1992,3.609375,3.625,684800,3.734375,3.734375,2.8767893314361572
14-08-1992,3.734375,3.78125,1344000,3.84375,3.75,2.8888261318206787
17-08-1992,3.671875,3.71875,1498400,3.71875,3.6875,2.8406782150268555
18-08-1992,3.578125,3.671875,823200,3.6875,3.59375,2.7684574127197266
19-08-1992,3.5,3.5,844800,3.6875,3.5625,2.744384288787842
20-08-1992,3.5625,3.625,7611200,3.640625,3.59375,2.7684574127197266
21-08-1992,3.59375,3.609375,1631200,3.640625,3.59375,2.7684574127197266
24-08-1992,3.578125,3.578125,1412000,3.609375,3.578125,2.756420612335205
25-08-1992,3.578125,3.578125,1002400,3.71875,3.671875,2.828641176223755
26-08-1992,3.6875,3.6875,1988000,3.75,3.75,2.8888261318206787
27-08-1992,3.71875,3.734375,872800,3.796875,3.78125,2.9128994941711426
28-08-1992,3.8125,3.8125,1732800,3.9375,3.9375,3.033267021179199
31-08-1992,3.84375,3.90625,1392800,3.984375,3.875,2.985121250152588
01-09-1992,3.859375,3.875,740000,3.9375,3.90625,3.009193181991577
02-09-1992,3.875,3.9375,458400,3.953125,3.890625,2.9971559047698975
03-09-1992,3.890625,3.90625,617600,3.921875,3.921875,3.0212299823760986
04-09-1992,3.921875,3.921875,190400,3.96875,3.953125,3.045304536819458
08-09-1992,3.953125,3.953125,1150400,4.09375,4.078125,3.14159893989563
09-09-1992,4.0625,4.078125,660000,4.09375,4.09375,3.1536338329315186
10-09-1992,4.0625,4.09375,809600,4.109375,4.078125,3.14159893989563
11-09-1992,4.0625,4.078125,549600,4.109375,4.109375,3.1656734943389893
14-09-1992,4.109375,4.140625,684000,4.171875,4.125,3.177708864212036
15-09-1992,4.109375,4.125,557600,4.140625,4.109375,3.1656734943389893
16-09-1992,4.09375,4.109375,723200,4.171875,4.125,3.177708864212036
17-09-1992,4.125,4.125,565600,4.28125,4.21875,3.2499289512634277
18-09-1992,4.1875,4.1875,668000,4.3125,4.3125,3.322150468826294
21-09-1992,4.328125,4.328125,808000,4.34375,4.34375,3.3462228775024414
22-09-1992,4.296875,4.3125,662400,4.375,4.359375,3.3582611083984375
23-09-1992,4.359375,4.375,898400,4.46875,4.375,3.370295763015747
24-09-1992,4.390625,4.390625,1256800,4.484375,4.46875,3.4425179958343506
25-09-1992,4.203125,4.421875,1837600,4.4375,4.25,3.274003028869629
28-09-1992,4.109375,4.25,1749600,4.25,4.125,3.177708864212036
29-09-1992,4.171875,4.203125,276800,4.234375,4.234375,3.261965751647949
30-09-1992,4.15625,4.21875,330400,4.234375,4.15625,3.2017812728881836
01-10-1992,4.03125,4.140625,378400,4.140625,4.03125,3.1054885387420654
02-10-1992,4.015625,4.046875,772800,4.078125,4.046875,3.117525100708008
05-10-1992,3.953125,4.046875,312000,4.046875,3.96875,3.057340621948242
06-10-1992,3.90625,3.96875,885600,3.96875,3.9375,3.033267021179199
07-10-1992,3.953125,3.953125,649600,4.015625,3.984375,3.0693769454956055
08-10-1992,3.96875,3.96875,266400,4.0625,4.0,3.086254596710205
09-10-1992,3.90625,3.96875,112000,4.03125,3.9375,3.0380332469940186
12-10-1992,3.9375,3.9375,351200,3.953125,3.953125,3.0500876903533936
13-10-1992,3.890625,3.9375,412000,3.953125,3.9375,3.0380332469940186
14-10-1992,3.921875,3.9375,341600,3.953125,3.9375,3.0380332469940186
15-10-1992,3.90625,3.9375,205600,3.9375,3.90625,3.0139217376708984
16-10-1992,3.921875,3.921875,1151200,4.078125,4.0625,3.13447904586792
19-10-1992,4.0625,4.0625,756000,4.3125,4.28125,3.3032567501068115
20-10-1992,4.203125,4.265625,209600,4.265625,4.21875,3.255034923553467
21-10-1992,4.140625,4.203125,104800,4.203125,4.15625,3.2068140506744385
22-10-1992,3.953125,4.140625,365600,4.140625,3.953125,3.0500876903533936
23-10-1992,3.9375,3.96875,101600,3.96875,3.953125,3.0500876903533936
26-10-1992,3.953125,3.953125,396800,4.015625,4.0,3.086254596710205
27-10-1992,3.8125,3.984375,318400,3.984375,3.859375,2.9777543544769287
28-10-1992,3.71875,3.859375,920800,3.859375,3.828125,2.9536423683166504
29-10-1992,3.828125,3.828125,348000,3.90625,3.84375,2.9656989574432373
30-10-1992,3.8125,3.875,143200,3.875,3.8125,2.941587448120117
02-11-1992,3.828125,3.828125,156800,3.875,3.875,2.9898109436035156
03-11-1992,3.75,3.875,296800,3.875,3.75,2.8933639526367188
04-11-1992,3.65625,3.765625,464000,3.78125,3.65625,2.8210291862487793
05-11-1992,3.46875,3.625,1245600,3.625,3.484375,2.688417911529541
06-11-1992,3.53125,3.53125,1823200,3.671875,3.65625,2.8210291862487793
09-11-1992,3.5,3.625,1322400,3.65625,3.546875,2.736640453338623
10-11-1992,3.5625,3.5625,1669600,3.625,3.625,2.7969186305999756
11-11-1992,3.5625,3.625,551200,3.625,3.5625,2.7486958503723145
12-11-1992,3.5625,3.625,1320800,3.640625,3.578125,2.7607524394989014
13-11-1992,3.59375,3.609375,324000,3.640625,3.625,2.7969186305999756
16-11-1992,3.609375,3.609375,257600,3.65625,3.65625,2.8210291862487793
17-11-1992,3.625,3.625,304000,3.640625,3.625,2.7969186305999756
18-11-1992,3.625,3.625,693600,3.640625,3.640625,2.8089754581451416
19-11-1992,3.46875,3.609375,821600,3.640625,3.5,2.700472831726074
20-11-1992,3.53125,3.53125,536800,3.59375,3.59375,2.7728078365325928
23-11-1992,3.5625,3.5625,660000,3.671875,3.625,2.7969186305999756
24-11-1992,3.578125,3.609375,503200,3.609375,3.59375,2.7728078365325928
25-11-1992,3.578125,3.578125,96000,3.609375,3.59375,2.7728078365325928
27-11-1992,3.578125,3.59375,230400,3.625,3.625,2.7969186305999756
30-11-1992,3.53125,3.625,539200,3.625,3.546875,2.736640453338623
01-12-1992,3.53125,3.546875,1116800,3.546875,3.53125,2.7245848178863525
02-12-1992,3.53125,3.53125,721600,3.578125,3.578125,2.7607524394989014
03-12-1992,3.421875,3.5625,1191200,3.5625,3.4375,2.652250289916992
04-12-1992,3.421875,3.4375,1249600,3.5,3.5,2.700472831726074
07-12-1992,3.484375,3.484375,167200,3.546875,3.5,2.700472831726074
08-12-1992,3.453125,3.5,580000,3.515625,3.484375,2.688417911529541
09-12-1992,3.484375,3.5,374400,3.546875,3.53125,2.7245848178863525
10-12-1992,3.484375,3.546875,1601600,3.609375,3.609375,2.7848637104034424
11-12-1992,3.65625,3.65625,151200,3.703125,3.671875,2.833085775375366
14-12-1992,3.609375,3.671875,920000,3.671875,3.65625,2.8210291862487793
15-12-1992,3.609375,3.640625,406400,3.640625,3.625,2.7969186305999756
16-12-1992,3.59375,3.609375,402400,3.625,3.59375,2.7728078365325928
17-12-1992,3.5625,3.609375,52800,3.609375,3.5625,2.7486958503723145
18-12-1992,3.578125,3.59375,295200,3.59375,3.59375,2.7728078365325928
21-12-1992,3.546875,3.578125,488000,3.578125,3.546875,2.736640453338623
22-12-1992,3.53125,3.5625,960800,3.5625,3.546875,2.736640453338623
23-12-1992,3.515625,3.546875,1008000,3.546875,3.515625,2.712528944015503
24-12-1992,3.53125,3.546875,655200,3.59375,3.59375,2.7728078365325928
28-12-1992,3.53125,3.578125,97600,3.578125,3.546875,2.736640453338623
29-12-1992,3.53125,3.546875,596000,3.59375,3.5625,2.7486958503723145
30-12-1992,3.546875,3.578125,639200,3.578125,3.546875,2.736640453338623
31-12-1992,3.5625,3.5625,376000,3.6875,3.671875,2.833085775375366
04-01-1993,3.609375,3.6875,597600,3.71875,3.609375,2.7848637104034424
05-01-1993,3.578125,3.609375,715200,3.6875,3.6875,2.845141649246216
06-01-1993,3.59375,3.6875,928800,3.6875,3.609375,2.7848637104034424
07-01-1993,3.5625,3.609375,333600,3.609375,3.578125,2.7607524394989014
08-01-1993,3.46875,3.578125,1617600,3.578125,3.46875,2.6763620376586914
11-01-1993,3.375,3.484375,410400,3.484375,3.390625,2.621753454208374
12-01-1993,3.359375,3.390625,269600,3.40625,3.40625,2.633833646774292
13-01-1993,3.359375,3.40625,826400,3.484375,3.46875,2.682161331176758
14-01-1993,3.34375,3.4375,619200,3.453125,3.34375,2.5855066776275635
15-01-1993,3.359375,3.375,1232800,3.421875,3.390625,2.621753454208374
18-01-1993,3.359375,3.390625,460000,3.390625,3.375,2.6096696853637695
19-01-1993,3.359375,3.359375,1157600,3.484375,3.453125,2.670079469680786
20-01-1993,3.4375,3.453125,132800,3.484375,3.46875,2.682161331176758
21-01-1993,3.4375,3.4375,272800,3.5,3.5,2.7063252925872803
22-01-1993,3.5,3.515625,540800,3.59375,3.59375,2.7788145542144775
25-01-1993,3.578125,3.578125,969600,3.703125,3.6875,2.851306676864624
26-01-1993,3.78125,3.8125,1224000,3.875,3.78125,2.9237987995147705
27-01-1993,3.703125,3.734375,636000,3.765625,3.75,2.899634599685669
28-01-1993,3.75,3.765625,773600,3.90625,3.90625,3.0204508304595947
29-01-1993,3.890625,3.90625,492800,4.0,3.96875,3.068779945373535
01-02-1993,4.0,4.0,1876800,4.078125,4.0625,3.141270875930786
02-02-1993,4.046875,4.046875,1044000,4.09375,4.09375,3.165433168411255
03-02-1993,4.09375,4.09375,1448000,4.359375,4.296875,3.322497844696045
04-02-1993,4.328125,4.328125,1330400,4.4375,4.4375,3.431232452392578
05-02-1993,4.4375,4.4375,1606400,4.515625,4.5,3.4795608520507812
08-02-1993,4.46875,4.5,1975200,4.5,4.5,3.4795608520507812
09-02-1993,4.40625,4.5,756000,4.5,4.421875,3.419152021408081
10-02-1993,4.359375,4.421875,800000,4.453125,4.375,3.3829071521759033
11-02-1993,4.359375,4.359375,971200,4.5,4.484375,3.4674766063690186
12-02-1993,4.46875,4.484375,932000,4.484375,4.484375,3.4674766063690186
16-02-1993,4.34375,4.46875,292800,4.46875,4.34375,3.3587424755096436
17-02-1993,4.34375,4.359375,632800,4.40625,4.390625,3.3949875831604004
18-02-1993,4.421875,4.421875,604800,4.484375,4.4375,3.431232452392578
19-02-1993,4.421875,4.4375,3408800,4.515625,4.5,3.4795608520507812
22-02-1993,4.5,4.5,1140000,4.609375,4.5625,3.527885913848877
23-02-1993,4.5,4.59375,664000,4.59375,4.546875,3.5158066749572754
24-02-1993,4.46875,4.515625,499200,4.515625,4.484375,3.4674766063690186
25-02-1993,4.359375,4.484375,259200,4.484375,4.359375,3.3708255290985107
26-02-1993,4.359375,4.390625,128000,4.421875,4.40625,3.4070708751678467
01-03-1993,4.421875,4.4375,1396000,4.53125,4.4375,3.431232452392578
02-03-1993,4.4375,4.46875,332800,4.484375,4.453125,3.443315267562866
03-03-1993,4.46875,4.46875,4088800,4.84375,4.78125,3.697033166885376
04-03-1993,4.640625,4.75,913600,4.78125,4.734375,3.66078782081604
05-03-1993,4.6875,4.71875,335200,4.734375,4.6875,3.624544382095337
08-03-1993,4.703125,4.703125,472000,4.796875,4.78125,3.697033166885376
09-03-1993,4.75,4.796875,324000,4.796875,4.78125,3.697033166885376
10-03-1993,4.734375,4.78125,199200,4.8125,4.8125,3.7211952209472656
11-03-1993,4.796875,4.8125,213600,4.921875,4.890625,3.781606674194336
12-03-1993,4.796875,4.921875,702400,4.921875,4.84375,3.7453625202178955
15-03-1993,4.84375,4.84375,209600,4.875,4.875,3.769524097442627
16-03-1993,4.84375,4.859375,316800,4.875,4.859375,3.7574424743652344
17-03-1993,4.859375,4.875,136800,4.984375,4.984375,3.854095458984375
18-03-1993,4.921875,4.96875,444000,5.0,5.0,3.8661766052246094
19-03-1993,4.96875,4.984375,300800,5.0,4.96875,3.842015027999878
22-03-1993,4.96875,4.984375,640800,5.0,4.984375,3.854095458984375
23-03-1993,4.96875,5.015625,100800,5.015625,4.96875,3.842015027999878
24-03-1993,4.96875,4.96875,574400,5.078125,4.96875,3.842015027999878
25-03-1993,4.84375,4.90625,1020000,4.921875,4.84375,3.7453625202178955
26-03-1993,4.8125,4.84375,753600,4.921875,4.90625,3.793687582015991
29-03-1993,4.921875,4.921875,589600,4.984375,4.984375,3.854095458984375
30-03-1993,5.0,5.0,663200,5.03125,5.03125,3.8903422355651855
31-03-1993,4.96875,5.03125,558400,5.03125,5.015625,3.8782589435577393
01-04-1993,4.984375,5.03125,537600,5.03125,5.0,3.8661766052246094
02-04-1993,4.859375,4.953125,240800,4.953125,4.890625,3.781606674194336
05-04-1993,4.875,4.90625,292800,4.90625,4.90625,3.793687582015991
06-04-1993,4.875,4.90625,604800,4.90625,4.875,3.769524097442627
07-04-1993,4.8125,4.84375,860000,4.875,4.875,3.769524097442627
08-04-1993,4.859375,4.859375,24000,4.875,4.875,3.7753312587738037
12-04-1993,4.859375,4.859375,325600,4.96875,4.96875,3.8479361534118652
13-04-1993,4.84375,4.96875,1076800,5.03125,4.875,3.7753312587738037
14-04-1993,4.84375,4.890625,447200,4.890625,4.84375,3.751132011413574
15-04-1993,4.8125,4.875,231200,4.921875,4.8125,3.7269294261932373
16-04-1993,4.796875,4.828125,356800,4.84375,4.84375,3.751132011413574
19-04-1993,4.828125,4.828125,173600,4.890625,4.875,3.7753312587738037
20-04-1993,4.90625,4.90625,1133600,5.0625,4.984375,3.860032796859741
21-04-1993,4.875,5.015625,185600,5.015625,4.875,3.7753312587738037
22-04-1993,4.671875,4.84375,335200,4.84375,4.671875,3.6180262565612793
23-04-1993,4.46875,4.671875,786400,4.671875,4.5,3.4849209785461426
26-04-1993,4.515625,4.53125,367200,4.640625,4.625,3.5817251205444336
27-04-1993,4.625,4.65625,108000,4.65625,4.640625,3.5938258171081543
28-04-1993,4.625,4.625,189600,4.640625,4.640625,3.5938258171081543
29-04-1993,4.625,4.65625,383200,4.75,4.75,3.6785285472869873
30-04-1993,4.75,4.75,779200,4.96875,4.921875,3.8116347789764404
03-05-1993,4.953125,4.953125,249600,4.984375,4.953125,3.83583664894104
04-05-1993,4.90625,4.921875,1332800,4.953125,4.921875,3.8116347789764404
05-05-1993,4.921875,4.921875,65600,4.9375,4.921875,3.8116347789764404
06-05-1993,4.921875,4.921875,664800,5.0,4.9375,3.823733329772949
07-05-1993,4.90625,4.921875,186400,4.96875,4.921875,3.8116347789764404
10-05-1993,4.8125,4.9375,828000,4.9375,4.8125,3.7269294261932373
11-05-1993,4.78125,4.78125,1120800,4.953125,4.9375,3.823733329772949
12-05-1993,4.90625,4.9375,852000,4.984375,4.953125,3.83583664894104
13-05-1993,4.90625,4.90625,702400,5.09375,5.0625,3.920536994934082
14-05-1993,5.0625,5.0625,931200,5.265625,5.171875,4.0052385330200195
17-05-1993,5.15625,5.171875,390400,5.203125,5.203125,4.029443264007568
18-05-1993,5.203125,5.203125,340800,5.328125,5.296875,4.102044105529785
19-05-1993,5.1875,5.3125,412800,5.3125,5.234375,4.0536417961120605
20-05-1993,5.21875,5.21875,216000,5.25,5.234375,4.0536417961120605
21-05-1993,5.203125,5.234375,400000,5.234375,5.21875,4.04154109954834
24-05-1993,5.21875,5.25,496000,5.25,5.234375,4.0536417961120605
25-05-1993,5.171875,5.1875,400800,5.25,5.1875,4.017341613769531
26-05-1993,5.15625,5.1875,188000,5.203125,5.203125,4.029443264007568
27-05-1993,5.203125,5.203125,511200,5.3125,5.3125,4.114143371582031
28-05-1993,5.28125,5.296875,473600,5.3125,5.3125,4.114143371582031
01-06-1993,5.328125,5.34375,619200,5.4375,5.40625,4.18674373626709
02-06-1993,5.40625,5.40625,522400,5.625,5.5625,4.3077521324157715
03-06-1993,5.484375,5.5625,403200,5.5625,5.515625,4.271448612213135
04-06-1993,5.484375,5.5,889600,5.515625,5.5,4.259349822998047
07-06-1993,5.484375,5.5,482400,5.515625,5.5,4.259349822998047
08-06-1993,5.421875,5.484375,277600,5.484375,5.4375,4.210949420928955
09-06-1993,5.40625,5.40625,262400,5.5,5.5,4.259349822998047
10-06-1993,5.4375,5.484375,779200,5.484375,5.4375,4.210949420928955
11-06-1993,5.234375,5.40625,606400,5.40625,5.234375,4.0536417961120605
14-06-1993,5.125,5.21875,763200,5.21875,5.125,3.9689390659332275
15-06-1993,5.125,5.125,288800,5.15625,5.125,3.9689390659332275
16-06-1993,5.140625,5.140625,219200,5.203125,5.203125,4.029443264007568
17-06-1993,5.21875,5.21875,193600,5.328125,5.25,4.0657429695129395
18-06-1993,5.265625,5.28125,224800,5.296875,5.265625,4.07784366607666
21-06-1993,5.28125,5.28125,292800,5.359375,5.34375,4.138346195220947
22-06-1993,5.265625,5.34375,1112000,5.34375,5.265625,4.07784366607666
23-06-1993,5.265625,5.265625,2466400,5.296875,5.296875,4.102044105529785
24-06-1993,5.0625,5.296875,637600,5.296875,5.125,3.9689390659332275
25-06-1993,5.109375,5.125,36000,5.125,5.125,3.9689390659332275
28-06-1993,5.125,5.125,204800,5.140625,5.140625,3.9810380935668945
29-06-1993,4.984375,5.109375,648000,5.125,5.046875,3.9084348678588867
30-06-1993,5.03125,5.0625,552000,5.09375,5.09375,3.944737434387207
01-07-1993,5.015625,5.078125,376800,5.078125,5.046875,3.9084348678588867
02-07-1993,5.015625,5.0625,100000,5.0625,5.046875,3.9084348678588867
06-07-1993,5.0,5.046875,437600,5.09375,5.0,3.8721349239349365
07-07-1993,4.96875,4.96875,1369600,5.078125,5.078125,3.9326376914978027
08-07-1993,5.078125,5.078125,955200,5.1875,5.1875,4.017341613769531
09-07-1993,5.171875,5.171875,1352000,5.25,5.25,4.071628093719482
12-07-1993,5.28125,5.28125,900000,5.34375,5.3125,4.120100498199463
13-07-1993,5.28125,5.3125,100000,5.3125,5.28125,4.095865249633789
14-07-1993,5.28125,5.28125,538400,5.3125,5.28125,4.095865249633789
15-07-1993,5.21875,5.3125,338400,5.3125,5.25,4.071628093719482
16-07-1993,5.234375,5.25,147200,5.265625,5.25,4.071628093719482
19-07-1993,5.25,5.296875,417600,5.296875,5.28125,4.095865249633789
20-07-1993,5.25,5.25,713600,5.3125,5.3125,4.120100498199463
21-07-1993,5.3125,5.3125,395200,5.34375,5.3125,4.120100498199463
22-07-1993,5.28125,5.3125,314400,5.3125,5.296875,4.107982635498047
23-07-1993,5.25,5.296875,341600,5.3125,5.3125,4.120100498199463
26-07-1993,5.296875,5.34375,196000,5.34375,5.296875,4.107982635498047
27-07-1993,5.21875,5.265625,191200,5.28125,5.25,4.071628093719482
28-07-1993,5.234375,5.25,356800,5.296875,5.265625,4.083747863769531
29-07-1993,5.25,5.265625,98400,5.3125,5.296875,4.107982635498047
30-07-1993,5.3125,5.3125,57600,5.328125,5.328125,4.132220268249512
02-08-1993,5.3125,5.328125,1029600,5.46875,5.46875,4.241281032562256
03-08-1993,5.484375,5.484375,356000,5.578125,5.5625,4.313985347747803
04-08-1993,5.546875,5.546875,400000,5.65625,5.625,4.362459182739258
05-08-1993,5.609375,5.609375,56000,5.640625,5.625,4.362459182739258
06-08-1993,5.578125,5.625,348800,5.625,5.59375,4.338223457336426
09-08-1993,5.609375,5.609375,344800,5.6875,5.6875,4.41093111038208
10-08-1993,5.6875,5.6875,632800,5.75,5.75,4.459403038024902
11-08-1993,5.78125,5.78125,784800,6.0,6.0,4.653290271759033
12-08-1993,5.984375,6.0,1103200,6.21875,6.015625,4.665407180786133
13-08-1993,5.9375,6.03125,226400,6.03125,5.9375,4.604820728302002
16-08-1993,5.9375,5.9375,448000,5.984375,5.984375,4.641173839569092
17-08-1993,6.0625,6.0625,640000,6.25,6.25,4.8471784591674805
18-08-1993,6.234375,6.234375,805600,6.484375,6.421875,4.980475425720215
19-08-1993,6.3125,6.4375,424000,6.46875,6.3125,4.895649433135986
20-08-1993,6.3125,6.3125,914400,6.453125,6.453125,5.004710674285889
23-08-1993,6.453125,6.46875,964800,6.703125,6.703125,5.1985979080200195
24-08-1993,6.53125,6.703125,704000,6.703125,6.5625,5.089537620544434
25-08-1993,6.4375,6.5625,753600,6.578125,6.453125,5.004710674285889
26-08-1993,6.25,6.453125,817600,6.453125,6.296875,4.883533477783203
27-08-1993,6.03125,6.28125,627200,6.28125,6.125,4.7502336502075195
30-08-1993,6.109375,6.125,529600,6.25,6.21875,4.822941780090332
31-08-1993,6.171875,6.234375,888000,6.328125,6.28125,4.871411323547363
01-09-1993,6.28125,6.28125,388800,6.390625,6.375,4.944119453430176
02-09-1993,6.28125,6.375,286400,6.375,6.28125,4.871411323547363
03-09-1993,6.28125,6.28125,135200,6.328125,6.296875,4.883533477783203
07-09-1993,6.125,6.296875,236800,6.328125,6.125,4.7502336502075195
08-09-1993,5.953125,6.125,388800,6.125,5.953125,4.616934776306152
09-09-1993,5.921875,5.953125,533600,5.984375,5.96875,4.629054546356201
10-09-1993,5.953125,5.96875,121600,5.984375,5.984375,4.641173839569092
13-09-1993,5.921875,5.984375,472800,6.03125,5.921875,4.592700004577637
14-09-1993,5.90625,5.953125,633600,5.96875,5.9375,4.604820728302002
15-09-1993,5.921875,5.9375,994400,6.046875,6.0,4.653290271759033
16-09-1993,6.0,6.0,152800,6.03125,6.0,4.653290271759033
17-09-1993,5.890625,5.96875,127200,5.96875,5.9375,4.604820728302002
20-09-1993,5.9375,5.9375,248000,5.96875,5.96875,4.629054546356201
21-09-1993,5.96875,5.96875,218400,6.03125,6.015625,4.665407180786133
22-09-1993,5.96875,6.0,99200,6.03125,5.96875,4.629054546356201
23-09-1993,5.953125,5.984375,232800,5.984375,5.984375,4.641173839569092
24-09-1993,5.953125,5.96875,357600,6.0,5.96875,4.629054546356201
27-09-1993,5.953125,5.953125,441600,6.0,5.984375,4.641173839569092
28-09-1993,5.921875,5.984375,326400,5.984375,5.9375,4.604820728302002
29-09-1993,5.9375,5.9375,1200800,6.453125,6.453125,5.004710674285889
30-09-1993,6.453125,6.453125,755200,6.625,6.625,5.138007640838623
01-10-1993,6.59375,6.59375,599200,6.71875,6.71875,5.210715293884277
04-10-1993,6.640625,6.71875,248000,6.75,6.640625,5.150124549865723
05-10-1993,6.578125,6.65625,122400,6.65625,6.578125,5.101654529571533
06-10-1993,6.5,6.578125,114400,6.578125,6.53125,5.065299034118652
07-10-1993,6.4375,6.5,224000,6.5,6.484375,5.028946399688721
08-10-1993,6.40625,6.484375,245600,6.484375,6.421875,4.986242771148682
11-10-1993,6.25,6.421875,288000,6.421875,6.25,4.852789402008057
12-10-1993,6.125,6.25,272800,6.25,6.125,4.755734443664551
13-10-1993,5.96875,6.078125,826400,6.109375,5.984375,4.646548748016357
14-10-1993,6.0,6.09375,388000,6.125,6.03125,4.682943344116211
15-10-1993,5.828125,6.0,707200,6.0,5.875,4.561624526977539
18-10-1993,5.71875,5.875,719200,5.875,5.75,4.464566230773926
19-10-1993,5.484375,5.75,1467200,5.875,5.828125,4.525227069854736
20-10-1993,5.3125,5.796875,1626400,5.796875,5.3125,4.124871730804443
21-10-1993,5.4375,5.4375,3216000,5.6875,5.5,4.2704548835754395
22-10-1993,5.375,5.5,928800,5.5,5.375,4.173399925231934
25-10-1993,5.28125,5.375,901600,5.421875,5.28125,4.100607872009277
26-10-1993,5.0,5.28125,1536800,5.3125,5.03125,3.906496286392212
27-10-1993,5.0625,5.0625,1416000,5.1875,5.1875,4.0278143882751465
28-10-1993,5.1875,5.1875,1215200,5.453125,5.453125,4.234057903289795
29-10-1993,5.328125,5.421875,412800,5.46875,5.34375,4.149135112762451
01-11-1993,5.34375,5.359375,379200,5.484375,5.453125,4.234057903289795
02-11-1993,5.453125,5.453125,553600,5.578125,5.5625,4.318982124328613
03-11-1993,5.578125,5.609375,540800,5.671875,5.625,4.36751127243042
04-11-1993,5.625,5.65625,345600,5.734375,5.625,4.36751127243042
05-11-1993,5.53125,5.625,112800,5.625,5.5625,4.318982124328613
08-11-1993,5.46875,5.5625,207200,5.5625,5.46875,4.246191024780273
09-11-1993,5.1875,5.46875,542400,5.46875,5.21875,4.052079677581787
10-11-1993,5.21875,5.25,191200,5.28125,5.265625,4.08847713470459
11-11-1993,5.203125,5.28125,564800,5.40625,5.21875,4.052079677581787
12-11-1993,5.0625,5.203125,1202400,5.203125,5.203125,4.039946556091309
15-11-1993,5.140625,5.203125,675200,5.234375,5.140625,3.9914190769195557
16-11-1993,4.875,4.96875,827200,4.984375,4.9375,3.8337032794952393
17-11-1993,4.9375,5.0,1617600,5.203125,5.203125,4.039946556091309
18-11-1993,5.15625,5.203125,463200,5.359375,5.296875,4.112740516662598
19-11-1993,5.21875,5.25,85600,5.265625,5.265625,4.08847713470459
22-11-1993,5.078125,5.25,173600,5.25,5.078125,3.9428930282592773
23-11-1993,5.078125,5.109375,697600,5.21875,5.09375,3.955023765563965
24-11-1993,5.109375,5.109375,556800,5.15625,5.15625,4.003549575805664
26-11-1993,5.03125,5.125,94400,5.125,5.03125,3.906496286392212
29-11-1993,4.828125,4.96875,1270400,4.96875,4.828125,3.7487783432006836
30-11-1993,4.78125,4.84375,457600,4.859375,4.828125,3.7487783432006836
01-12-1993,4.828125,4.859375,316000,4.921875,4.859375,3.773045063018799
02-12-1993,4.84375,4.84375,429600,4.90625,4.859375,3.773045063018799
03-12-1993,4.875,4.875,142400,4.90625,4.875,3.7851758003234863
06-12-1993,4.84375,4.875,308800,4.90625,4.890625,3.7973079681396484
07-12-1993,4.859375,4.875,528800,4.953125,4.90625,3.8094396591186523
08-12-1993,4.84375,4.890625,89600,4.890625,4.859375,3.773045063018799
09-12-1993,4.71875,4.859375,69600,4.859375,4.78125,3.7123842239379883
10-12-1993,4.796875,4.796875,271200,4.84375,4.828125,3.7487783432006836
13-12-1993,4.71875,4.859375,102400,4.859375,4.765625,3.7002553939819336
14-12-1993,4.734375,4.796875,620800,4.8125,4.8125,3.736646890640259
15-12-1993,4.71875,4.765625,128000,4.765625,4.734375,3.6759884357452393
16-12-1993,4.75,4.75,565600,4.84375,4.78125,3.7123842239379883
17-12-1993,4.734375,4.796875,200800,4.8125,4.75,3.6881189346313477
20-12-1993,4.40625,4.71875,927200,4.71875,4.515625,3.5061395168304443
21-12-1993,4.265625,4.546875,880000,4.546875,4.4375,3.4454808235168457
22-12-1993,4.40625,4.453125,676000,4.75,4.734375,3.6759884357452393
23-12-1993,4.703125,4.703125,176000,4.796875,4.75,3.6881189346313477
27-12-1993,4.6875,4.6875,1060000,4.890625,4.859375,3.773045063018799
28-12-1993,4.8125,4.890625,629600,4.921875,4.8125,3.736646890640259
29-12-1993,4.828125,4.828125,648000,4.890625,4.859375,3.773045063018799
30-12-1993,4.828125,4.84375,270400,4.859375,4.859375,3.773045063018799
31-12-1993,4.828125,4.859375,112800,4.875,4.875,3.7851758003234863
03-01-1994,4.828125,4.875,332000,4.875,4.875,3.7851758003234863
04-01-1994,4.84375,4.84375,202400,4.890625,4.890625,3.7973079681396484
05-01-1994,4.96875,4.96875,800000,5.25,5.203125,4.039946556091309
06-01-1994,5.234375,5.234375,999200,5.484375,5.453125,4.234057903289795
07-01-1994,5.40625,5.46875,704800,5.46875,5.4375,4.221926689147949
10-01-1994,5.421875,5.421875,573600,5.640625,5.640625,4.3856916427612305
11-01-1994,5.453125,5.59375,1028800,5.59375,5.5,4.276353359222412
12-01-1994,5.390625,5.5,296000,5.53125,5.40625,4.2034592628479
13-01-1994,5.3125,5.40625,10779200,5.421875,5.3125,4.130570888519287
14-01-1994,5.15625,5.28125,1295200,5.328125,5.15625,4.009082794189453
17-01-1994,5.21875,5.25,1098400,5.3125,5.296875,4.118419647216797
18-01-1994,5.3125,5.3125,851200,5.4375,5.4375,4.227756023406982
19-01-1994,5.46875,5.46875,1249600,5.609375,5.515625,4.288504123687744
20-01-1994,5.359375,5.515625,487200,5.5625,5.359375,4.1670145988464355
21-01-1994,5.34375,5.390625,354400,5.421875,5.375,4.179163455963135
24-01-1994,5.3125,5.390625,408800,5.40625,5.3125,4.130570888519287
25-01-1994,5.296875,5.3125,284000,5.328125,5.3125,4.130570888519287
26-01-1994,5.265625,5.3125,873600,5.40625,5.375,4.179163455963135
27-01-1994,5.375,5.375,1322400,5.5625,5.546875,4.312800407409668
28-01-1994,5.484375,5.5,303200,5.515625,5.5,4.276353359222412
31-01-1994,5.515625,5.53125,787200,5.671875,5.515625,4.288504123687744
01-02-1994,5.546875,5.546875,700800,5.625,5.609375,4.361396789550781
02-02-1994,5.578125,5.578125,999200,5.9375,5.765625,4.482881546020508
03-02-1994,5.734375,5.8125,155200,5.8125,5.75,4.470736503601074
04-02-1994,5.703125,5.78125,1171200,5.828125,5.71875,4.44643497467041
07-02-1994,5.609375,5.671875,363200,5.671875,5.625,4.373540878295898
08-02-1994,5.59375,5.625,355200,5.75,5.734375,4.458583831787109
09-02-1994,5.59375,5.734375,272800,5.734375,5.65625,4.397841930389404
10-02-1994,5.5,5.65625,944800,5.65625,5.5,4.276353359222412
11-02-1994,5.5,5.53125,212800,5.71875,5.6875,4.422139644622803
14-02-1994,5.40625,5.6875,335200,5.6875,5.5,4.276353359222412
15-02-1994,5.46875,5.46875,137600,5.53125,5.5,4.276353359222412
16-02-1994,5.375,5.46875,541600,5.484375,5.375,4.179163455963135
17-02-1994,5.34375,5.390625,538400,5.46875,5.34375,4.154867172241211
18-02-1994,5.328125,5.375,437600,5.390625,5.34375,4.154867172241211
22-02-1994,5.359375,5.375,83200,5.40625,5.375,4.179163455963135
23-02-1994,5.34375,5.34375,152000,5.4375,5.421875,4.215609073638916
24-02-1994,5.375,5.421875,108800,5.4375,5.4375,4.227756023406982
25-02-1994,5.46875,5.5,848800,5.5625,5.46875,4.25205659866333
28-02-1994,5.375,5.46875,57600,5.46875,5.375,4.179163455963135
01-03-1994,5.34375,5.40625,180000,5.40625,5.375,4.179163455963135
02-03-1994,5.28125,5.34375,310400,5.34375,5.3125,4.130570888519287
03-03-1994,5.296875,5.328125,92800,5.34375,5.3125,4.130570888519287
04-03-1994,5.296875,5.296875,196800,5.40625,5.390625,4.191312789916992
07-03-1994,5.34375,5.40625,268800,5.40625,5.34375,4.154867172241211
08-03-1994,5.234375,5.3125,516800,5.328125,5.234375,4.069825649261475
09-03-1994,4.96875,5.203125,609600,5.203125,5.03125,3.911891222000122
10-03-1994,4.921875,5.015625,894400,5.046875,4.9375,3.8390002250671387
11-03-1994,4.921875,4.953125,410400,5.03125,5.015625,3.899745464324951
14-03-1994,5.015625,5.015625,308800,5.1875,5.171875,4.0212321281433105
15-03-1994,5.21875,5.21875,446400,5.328125,5.28125,4.106269836425781
16-03-1994,5.25,5.265625,458400,5.296875,5.28125,4.106269836425781
17-03-1994,5.265625,5.265625,423200,5.515625,5.484375,4.264205455780029
18-03-1994,5.5,5.53125,879200,5.6875,5.6875,4.422139644622803
21-03-1994,5.671875,5.71875,813600,5.734375,5.71875,4.44643497467041
22-03-1994,5.6875,5.6875,1078400,5.8125,5.796875,4.50717830657959
23-03-1994,5.625,5.6875,722400,5.6875,5.671875,4.409990310668945
24-03-1994,5.5625,5.59375,674400,5.65625,5.625,4.373540878295898
25-03-1994,5.609375,5.609375,510400,5.671875,5.625,4.373540878295898
28-03-1994,5.4375,5.609375,1590400,5.609375,5.4375,4.227756023406982
29-03-1994,5.25,5.421875,617600,5.421875,5.25,4.081974506378174
30-03-1994,5.109375,5.234375,567200,5.328125,5.3125,4.130570888519287
31-03-1994,5.265625,5.3125,148800,5.34375,5.34375,4.154867172241211
04-04-1994,5.25,5.3125,445600,5.3125,5.265625,4.094123840332031
05-04-1994,5.234375,5.28125,940000,5.328125,5.25,4.081974506378174
06-04-1994,5.21875,5.3125,240000,5.375,5.375,4.179163455963135
07-04-1994,5.34375,5.375,574400,5.4375,5.34375,4.154867172241211
08-04-1994,5.3125,5.328125,169600,5.34375,5.34375,4.154867172241211
11-04-1994,5.265625,5.3125,698400,5.3125,5.296875,4.124207496643066
12-04-1994,5.3125,5.3125,1101600,5.40625,5.375,4.185035228729248
13-04-1994,5.359375,5.375,604000,5.4375,5.4375,4.233698844909668
14-04-1994,5.359375,5.390625,1280800,5.53125,5.53125,4.306695938110352
15-04-1994,5.46875,5.53125,826400,5.875,5.875,4.574344158172607
18-04-1994,5.6875,5.8125,1331200,5.8125,5.796875,4.513513088226318
19-04-1994,5.734375,5.78125,704000,5.8125,5.734375,4.464851379394531
20-04-1994,5.703125,5.71875,727200,5.71875,5.71875,4.45268440246582
21-04-1994,5.703125,5.703125,480000,5.765625,5.75,4.477017402648926
22-04-1994,5.71875,5.734375,332000,5.796875,5.765625,4.489181995391846
25-04-1994,5.734375,5.765625,498400,5.9375,5.9375,4.623006820678711
26-04-1994,5.9375,5.9375,1096000,5.96875,5.96875,4.647338390350342
28-04-1994,5.9375,5.953125,856800,6.015625,5.953125,4.635172367095947
29-04-1994,5.890625,5.9375,535200,5.9375,5.9375,4.623006820678711
02-05-1994,5.890625,5.90625,652000,5.953125,5.953125,4.635172367095947
03-05-1994,5.859375,5.9375,560800,5.9375,5.875,4.574344158172607
04-05-1994,5.875,5.875,358400,5.9375,5.9375,4.623006820678711
05-05-1994,5.921875,5.96875,66400,5.96875,5.921875,4.610841751098633
06-05-1994,5.921875,5.921875,343200,6.125,6.09375,4.744664192199707
09-05-1994,6.03125,6.109375,453600,6.109375,6.078125,4.732497692108154
10-05-1994,6.09375,6.140625,632800,6.140625,6.09375,4.744664192199707
11-05-1994,6.03125,6.09375,187200,6.109375,6.03125,4.695999622344971
12-05-1994,6.03125,6.046875,806400,6.15625,6.140625,4.781162738800049
13-05-1994,6.109375,6.109375,257600,6.125,6.125,4.76899528503418
16-05-1994,6.109375,6.140625,293600,6.140625,6.109375,4.756831645965576
17-05-1994,5.890625,6.09375,1044000,6.09375,5.953125,4.635172367095947
18-05-1994,5.90625,5.96875,1417600,5.984375,5.96875,4.647338390350342
19-05-1994,5.890625,5.984375,205600,5.984375,5.890625,4.586508750915527
20-05-1994,5.8125,5.90625,309600,5.90625,5.828125,4.537846088409424
23-05-1994,5.765625,5.796875,208800,5.8125,5.765625,4.489181995391846
24-05-1994,5.703125,5.75,287200,5.75,5.703125,4.440519332885742
25-05-1994,5.65625,5.71875,179200,5.71875,5.65625,4.40402364730835
26-05-1994,5.515625,5.59375,840800,5.625,5.546875,4.3188629150390625
27-05-1994,5.53125,5.5625,70400,5.59375,5.578125,4.3431925773620605
31-05-1994,5.5,5.546875,752800,5.578125,5.5,4.282362937927246
01-06-1994,5.5,5.5,480800,5.546875,5.515625,4.294529438018799
02-06-1994,5.46875,5.5,600000,5.53125,5.46875,4.2580342292785645
03-06-1994,5.34375,5.453125,136800,5.453125,5.421875,4.221534729003906
06-06-1994,5.453125,5.5,132800,5.5,5.46875,4.2580342292785645
07-06-1994,5.46875,5.46875,863200,5.578125,5.5625,4.331026554107666
08-06-1994,5.4375,5.5625,276800,5.5625,5.46875,4.2580342292785645
09-06-1994,5.375,5.4375,304800,5.4375,5.375,4.185035228729248
10-06-1994,5.375,5.375,165600,5.578125,5.578125,4.3431925773620605
13-06-1994,5.578125,5.578125,736800,5.703125,5.6875,4.428353309631348
14-06-1994,5.703125,5.703125,476000,5.75,5.75,4.477017402648926
15-06-1994,5.71875,5.75,292000,5.78125,5.734375,4.464851379394531
16-06-1994,5.71875,5.71875,132000,5.78125,5.78125,4.50134801864624
17-06-1994,5.75,5.75,384000,5.90625,5.90625,4.59867525100708
20-06-1994,5.75,5.9375,174800,5.9375,5.84375,4.550013542175293
21-06-1994,5.78125,5.78125,166400,5.90625,5.90625,4.59867525100708
22-06-1994,5.875,5.96875,52800,5.96875,5.90625,4.59867525100708
23-06-1994,5.75,5.96875,197200,5.96875,5.75,4.477017402648926
24-06-1994,5.59375,5.75,143200,5.75,5.71875,4.45268440246582
27-06-1994,5.625,5.6875,136800,5.75,5.71875,4.45268440246582
28-06-1994,5.59375,5.65625,190800,5.71875,5.71875,4.45268440246582
29-06-1994,5.65625,5.71875,94800,5.75,5.75,4.477017402648926
30-06-1994,5.59375,5.6875,440400,5.75,5.75,4.477017402648926
01-07-1994,5.625,5.75,150400,5.75,5.65625,4.40402364730835
05-07-1994,5.5,5.6875,72400,5.6875,5.5,4.282362937927246
06-07-1994,5.46875,5.5,182800,5.6875,5.6875,4.428353309631348
07-07-1994,5.59375,5.71875,36000,5.71875,5.59375,4.355360984802246
08-07-1994,5.5,5.5625,24000,5.59375,5.5,4.282362937927246
11-07-1994,5.5,5.53125,51600,5.5625,5.5625,4.336939811706543
12-07-1994,5.5,5.5625,98800,5.59375,5.5625,4.336939811706543
13-07-1994,5.40625,5.59375,277200,5.65625,5.5,4.288212299346924
14-07-1994,5.4375,5.53125,72800,5.53125,5.4375,4.239479064941406
15-07-1994,5.34375,5.40625,68800,5.40625,5.375,4.190750598907471
18-07-1994,5.3125,5.4375,261600,5.46875,5.46875,4.263848304748535
19-07-1994,5.375,5.4375,143200,5.4375,5.375,4.190750598907471
20-07-1994,5.3125,5.40625,31600,5.40625,5.3125,4.14202356338501
21-07-1994,5.1875,5.1875,230800,5.34375,5.34375,4.166386127471924
22-07-1994,5.1875,5.3125,37600,5.3125,5.21875,4.068928241729736
25-07-1994,5.03125,5.25,187200,5.25,5.03125,3.9227375984191895
26-07-1994,4.9375,5.0625,230000,5.0625,4.96875,3.8740081787109375
27-07-1994,4.90625,5.0,551200,5.03125,4.9375,3.849644422531128
28-07-1994,4.9375,4.9375,342800,5.0,5.0,3.8983731269836426
29-07-1994,4.96875,5.0,209600,5.0,4.96875,3.8740081787109375
01-08-1994,4.9375,4.9375,620000,5.0,5.0,3.8983731269836426
02-08-1994,4.9375,4.96875,216400,5.0,5.0,3.8983731269836426
03-08-1994,4.90625,4.96875,430800,5.03125,5.0,3.8983731269836426
04-08-1994,4.9375,4.96875,156400,5.0625,5.0,3.8983731269836426
05-08-1994,4.78125,4.96875,233200,5.0,4.78125,3.727821111679077
08-08-1994,4.8125,4.84375,731600,4.90625,4.84375,3.776552438735962
09-08-1994,4.78125,4.8125,1479200,5.0,5.0,3.8983731269836426
10-08-1994,5.03125,5.0625,600000,5.125,5.0625,3.9471044540405273
11-08-1994,4.96875,5.03125,326800,5.09375,4.96875,3.8740081787109375
12-08-1994,4.9375,4.96875,558400,5.03125,5.0,3.8983731269836426
15-08-1994,4.96875,5.0,71600,5.0625,4.96875,3.8740081787109375
16-08-1994,4.9375,5.0,300800,5.0,4.9375,3.849644422531128
17-08-1994,4.90625,4.9375,148800,5.0,4.96875,3.8740081787109375
18-08-1994,4.90625,4.96875,228400,4.96875,4.9375,3.849644422531128
19-08-1994,4.90625,4.9375,330400,4.953125,4.90625,3.825279951095581
22-08-1994,4.8125,4.9375,137200,4.9375,4.8125,3.752183675765991
23-08-1994,4.78125,4.875,459200,4.90625,4.84375,3.776552438735962
24-08-1994,4.875,4.875,956000,5.03125,4.9375,3.849644422531128
25-08-1994,4.75,4.96875,773200,4.96875,4.78125,3.727821111679077
26-08-1994,4.65625,4.8125,1071600,4.875,4.8125,3.752183675765991
29-08-1994,4.625,4.875,1677600,4.875,4.71875,3.6790897846221924
30-08-1994,4.6875,4.71875,976800,4.8125,4.8125,3.752183675765991
31-08-1994,4.75,4.8125,1103600,4.90625,4.8125,3.752183675765991
01-09-1994,4.78125,4.78125,967600,4.875,4.84375,3.776552438735962
02-09-1994,4.84375,4.90625,250400,4.9375,4.9375,3.849644422531128
06-09-1994,4.875,4.90625,397200,5.03125,5.03125,3.9227375984191895
07-09-1994,5.0625,5.0625,1347600,5.25,5.1875,4.04456090927124
08-09-1994,5.125,5.125,1925200,5.4375,5.4375,4.239479064941406
09-09-1994,5.125,5.375,1384800,5.375,5.125,3.9958338737487793
12-09-1994,5.125,5.1875,572800,5.21875,5.125,3.9958338737487793
13-09-1994,5.125,5.15625,136400,5.1875,5.15625,4.020200729370117
14-09-1994,5.125,5.125,378800,5.25,5.25,4.093294143676758
15-09-1994,5.21875,5.25,1040800,5.3125,5.25,4.093294143676758
16-09-1994,5.25,5.28125,429600,5.375,5.375,4.190750598907471
19-09-1994,5.25,5.375,374400,5.375,5.25,4.093294143676758
20-09-1994,5.0,5.1875,248400,5.1875,5.125,3.9958338737487793
21-09-1994,4.9375,5.125,303200,5.125,5.0,3.8983731269836426
22-09-1994,5.0,5.0625,68000,5.0625,5.0,3.8983731269836426
23-09-1994,5.0625,5.0625,456000,5.21875,5.1875,4.04456090927124
26-09-1994,5.15625,5.15625,168800,5.25,5.25,4.093294143676758
27-09-1994,5.15625,5.21875,271200,5.21875,5.1875,4.04456090927124
28-09-1994,5.15625,5.1875,45600,5.21875,5.15625,4.020200729370117
29-09-1994,5.125,5.1875,135200,5.1875,5.15625,4.020200729370117
30-09-1994,5.0625,5.1875,63600,5.1875,5.09375,3.9714701175689697
03-10-1994,5.0625,5.09375,100000,5.125,5.0625,3.9471044540405273
04-10-1994,4.96875,5.09375,256800,5.09375,4.96875,3.8740081787109375
05-10-1994,4.96875,4.96875,100400,5.03125,5.03125,3.9227375984191895
06-10-1994,5.03125,5.0625,187200,5.125,5.0625,3.9471044540405273
07-10-1994,5.09375,5.09375,220000,5.3125,5.28125,4.1237640380859375
10-10-1994,5.28125,5.28125,344000,5.375,5.3125,4.148168563842773
11-10-1994,5.3125,5.3125,328800,5.375,5.3125,4.148168563842773
12-10-1994,5.15625,5.25,155600,5.25,5.15625,4.0261640548706055
13-10-1994,5.1875,5.21875,285600,5.28125,5.25,4.099366188049316
14-10-1994,5.1875,5.25,151200,5.25,5.25,4.099366188049316
17-10-1994,5.25,5.3125,88000,5.3125,5.25,4.099366188049316
18-10-1994,5.25,5.25,153200,5.375,5.375,4.196968078613281
19-10-1994,5.34375,5.34375,236000,5.4375,5.34375,4.172569274902344
20-10-1994,5.21875,5.3125,174000,5.34375,5.25,4.099366188049316
21-10-1994,5.1875,5.1875,66800,5.25,5.21875,4.074965953826904
24-10-1994,5.1875,5.25,72800,5.34375,5.3125,4.148168563842773
25-10-1994,5.1875,5.3125,243200,5.34375,5.25,4.099366188049316
26-10-1994,5.21875,5.25,512800,5.40625,5.40625,4.22136926651001
27-10-1994,5.375,5.375,1548800,5.625,5.53125,4.318974018096924
28-10-1994,5.46875,5.5,638000,5.6875,5.65625,4.416579723358154
31-10-1994,5.5,5.625,102000,5.625,5.53125,4.318974018096924
01-11-1994,5.46875,5.53125,71200,5.5625,5.5625,4.343374729156494
02-11-1994,5.4375,5.53125,349600,5.53125,5.46875,4.270174980163574
03-11-1994,5.46875,5.5,54000,5.5625,5.53125,4.318974018096924
04-11-1994,5.46875,5.46875,237600,5.53125,5.46875,4.270174980163574
07-11-1994,5.4375,5.5,145600,5.5,5.4375,4.2457685470581055
08-11-1994,5.375,5.40625,126800,5.4375,5.40625,4.22136926651001
09-11-1994,5.4375,5.4375,328400,5.46875,5.4375,4.2457685470581055
10-11-1994,5.4375,5.4375,60800,5.46875,5.4375,4.2457685470581055
11-11-1994,5.34375,5.4375,80800,5.46875,5.34375,4.172569274902344
14-11-1994,5.21875,5.3125,125600,5.3125,5.25,4.099366188049316
15-11-1994,5.21875,5.25,166400,5.28125,5.28125,4.1237640380859375
16-11-1994,5.15625,5.21875,154800,5.25,5.15625,4.0261640548706055
17-11-1994,4.90625,5.09375,990400,5.09375,4.96875,3.8797566890716553
18-11-1994,4.625,4.90625,1564800,4.90625,4.78125,3.7333521842956543
21-11-1994,4.71875,4.8125,789600,4.84375,4.75,3.7089500427246094
22-11-1994,4.625,4.6875,559600,4.71875,4.6875,3.660149335861206
23-11-1994,4.5,4.71875,952400,4.71875,4.59375,3.5869462490081787
25-11-1994,4.53125,4.5625,45600,4.59375,4.53125,3.538144588470459
28-11-1994,4.46875,4.59375,1295600,4.59375,4.53125,3.538144588470459
29-11-1994,4.46875,4.53125,1277200,4.625,4.59375,3.5869462490081787
30-11-1994,4.53125,4.625,410400,4.625,4.53125,3.538144588470459
01-12-1994,4.5,4.53125,507600,4.65625,4.625,3.61134672164917
02-12-1994,4.625,4.625,588000,4.6875,4.625,3.61134672164917
05-12-1994,4.375,4.59375,1013600,4.65625,4.375,3.4161391258239746
06-12-1994,4.375,4.375,664400,4.4375,4.375,3.4161391258239746
07-12-1994,4.34375,4.375,218400,4.5625,4.5625,3.5625436305999756
08-12-1994,4.53125,4.53125,552800,4.8125,4.6875,3.660149335861206
09-12-1994,4.5625,4.625,588400,4.625,4.59375,3.5869462490081787
12-12-1994,4.625,4.625,519200,4.6875,4.65625,3.635745048522949
13-12-1994,4.65625,4.65625,408000,4.78125,4.75,3.7089500427246094
14-12-1994,4.78125,4.78125,529200,4.96875,4.9375,3.8553555011749268
15-12-1994,4.8125,4.96875,116000,4.96875,4.84375,3.7821545600891113
16-12-1994,4.8125,4.84375,312800,4.875,4.84375,3.7821545600891113
19-12-1994,4.75,4.84375,426800,4.84375,4.8125,3.757751226425171
20-12-1994,4.625,4.75,305200,4.8125,4.65625,3.635745048522949
21-12-1994,4.59375,4.6875,634400,4.6875,4.625,3.61134672164917
22-12-1994,4.53125,4.65625,284000,4.65625,4.53125,3.538144588470459
23-12-1994,4.53125,4.5625,29600,4.59375,4.5625,3.5625436305999756
27-12-1994,4.4375,4.59375,209600,4.59375,4.5,3.5137417316436768
28-12-1994,4.5,4.5,228800,4.59375,4.59375,3.5869462490081787
29-12-1994,4.65625,4.65625,221200,4.8125,4.71875,3.6845483779907227
30-12-1994,4.6875,4.71875,150400,4.78125,4.6875,3.660149335861206
03-01-1995,4.65625,4.75,129600,4.78125,4.75,3.7089500427246094
04-01-1995,4.6875,4.75,68400,4.8125,4.71875,3.6845483779907227
05-01-1995,4.59375,4.65625,260000,4.6875,4.65625,3.635745048522949
06-01-1995,4.5,4.6875,404800,4.6875,4.5625,3.5625436305999756
09-01-1995,4.46875,4.53125,613600,4.5625,4.46875,3.4950873851776123
10-01-1995,4.3125,4.4375,289600,4.4375,4.3125,3.372880697250366
11-01-1995,4.3125,4.3125,124800,4.40625,4.40625,3.4462058544158936
12-01-1995,4.3125,4.375,374400,4.4375,4.3125,3.372880697250366
13-01-1995,4.28125,4.3125,66800,4.40625,4.375,3.421764850616455
16-01-1995,4.28125,4.3125,480800,4.328125,4.3125,3.372880697250366
17-01-1995,4.3125,4.3125,437600,4.4375,4.40625,3.4462058544158936
18-01-1995,4.40625,4.40625,606000,4.59375,4.5625,3.5684092044830322
19-01-1995,4.5,4.5625,248000,4.5625,4.5,3.519526720046997
20-01-1995,4.5,4.53125,76400,4.53125,4.53125,3.5439674854278564
23-01-1995,4.375,4.46875,128800,4.5,4.375,3.421764850616455
24-01-1995,4.375,4.375,345600,4.5625,4.53125,3.5439674854278564
25-01-1995,4.46875,4.53125,129600,4.53125,4.5,3.519526720046997
26-01-1995,4.5,4.5,145200,4.625,4.625,3.6172945499420166
27-01-1995,4.5,4.5625,512000,4.59375,4.53125,3.5439674854278564
30-01-1995,4.4375,4.53125,193200,4.53125,4.46875,3.4950873851776123
31-01-1995,4.4375,4.4375,186400,4.53125,4.4375,3.470644474029541
01-02-1995,4.4375,4.4375,46000,4.5,4.46875,3.4950873851776123
02-02-1995,4.4375,4.46875,41600,4.5,4.46875,3.4950873851776123
03-02-1995,4.4375,4.5,243600,4.53125,4.5,3.519526720046997
06-02-1995,4.5625,4.625,651200,4.8125,4.75,3.715056896209717
07-02-1995,4.6875,4.8125,437200,4.8125,4.6875,3.666175127029419
08-02-1995,4.71875,4.71875,549600,4.8125,4.75,3.715056896209717
09-02-1995,4.6875,4.78125,278800,4.78125,4.6875,3.666175127029419
10-02-1995,4.6875,4.71875,243600,4.78125,4.78125,3.7394988536834717
13-02-1995,4.8125,4.8125,264800,4.90625,4.84375,3.788381338119507
14-02-1995,4.75,4.84375,137600,4.84375,4.84375,3.788381338119507
15-02-1995,4.8125,4.84375,277200,4.96875,4.9375,3.861704111099243
16-02-1995,4.9375,4.9375,477600,5.03125,5.0,3.9105873107910156
17-02-1995,5.0,5.0,261200,5.125,5.125,4.008349418640137
21-02-1995,5.09375,5.125,92400,5.125,5.125,4.008349418640137
22-02-1995,5.0625,5.09375,214400,5.125,5.09375,3.98390793800354
23-02-1995,5.0625,5.125,348800,5.15625,5.15625,4.0327911376953125
24-02-1995,5.09375,5.15625,281200,5.15625,5.125,4.008349418640137
27-02-1995,5.09375,5.125,381600,5.15625,5.15625,4.0327911376953125
28-02-1995,5.15625,5.1875,322400,5.21875,5.21875,4.081673622131348
01-03-1995,5.15625,5.1875,70800,5.1875,5.15625,4.0327911376953125
02-03-1995,5.15625,5.15625,218800,5.25,5.25,4.106117248535156
03-03-1995,5.21875,5.25,259600,5.28125,5.25,4.106117248535156
06-03-1995,5.15625,5.25,236400,5.25,5.21875,4.081673622131348
07-03-1995,5.125,5.25,405200,5.25,5.125,4.008349418640137
08-03-1995,5.125,5.15625,442800,5.28125,5.21875,4.081673622131348
09-03-1995,5.1875,5.25,179600,5.28125,5.28125,4.130555629730225
10-03-1995,5.15625,5.25,170400,5.25,5.15625,4.0327911376953125
13-03-1995,5.15625,5.1875,100800,5.21875,5.1875,4.057233810424805
14-03-1995,5.1875,5.1875,101600,5.25,5.25,4.106117248535156
15-03-1995,5.25,5.25,317200,5.34375,5.3125,4.154998302459717
16-03-1995,5.28125,5.28125,635600,5.5,5.4375,4.252762317657471
17-03-1995,5.3125,5.40625,492800,5.5,5.4375,4.252762317657471
20-03-1995,5.28125,5.40625,426800,5.5,5.34375,4.179440498352051
21-03-1995,5.25,5.3125,159600,5.3125,5.25,4.106117248535156
22-03-1995,5.28125,5.3125,349200,5.375,5.3125,4.154998302459717
23-03-1995,5.3125,5.34375,279600,5.4375,5.40625,4.228322505950928
24-03-1995,5.28125,5.40625,696000,5.40625,5.3125,4.154998302459717
27-03-1995,5.3125,5.34375,314400,5.5,5.5,4.301643371582031
28-03-1995,5.5,5.5,268800,5.5625,5.5625,4.350525379180908
29-03-1995,5.5625,5.5625,458000,5.6875,5.625,4.399411678314209
30-03-1995,5.65625,5.65625,414400,5.875,5.875,4.594937324523926
31-03-1995,5.90625,5.90625,1336800,6.21875,6.15625,4.8149094581604
03-04-1995,5.96875,6.15625,1253600,6.15625,5.96875,4.668262958526611
04-04-1995,5.84375,5.96875,666000,5.96875,5.875,4.594937324523926
05-04-1995,5.84375,5.875,1044800,5.96875,5.90625,4.619380950927734
06-04-1995,5.71875,5.875,704000,5.875,5.71875,4.472733020782471
07-04-1995,5.625,5.6875,227600,5.75,5.625,4.405189037322998
10-04-1995,5.59375,5.59375,525600,5.75,5.75,4.503079891204834
11-04-1995,5.6875,5.78125,668400,5.78125,5.75,4.503079891204834
12-04-1995,5.71875,5.75,110400,5.78125,5.78125,4.527552604675293
13-04-1995,5.75,5.8125,191600,5.875,5.75,4.503079891204834
17-04-1995,5.75,5.78125,133200,5.8125,5.75,4.503079891204834
18-04-1995,5.5625,5.75,805200,5.75,5.5625,4.356238842010498
19-04-1995,5.53125,5.59375,182400,5.625,5.625,4.405189037322998
20-04-1995,5.625,5.625,356000,5.78125,5.78125,4.527552604675293
21-04-1995,5.8125,5.8125,1894000,6.1875,6.09375,4.7722859382629395
24-04-1995,5.9375,6.125,940800,6.1875,5.9375,4.649918079376221
25-04-1995,5.84375,5.875,103200,5.90625,5.84375,4.576501369476318
26-04-1995,5.71875,5.875,144000,5.875,5.78125,4.527552604675293
27-04-1995,5.65625,5.78125,390800,5.78125,5.65625,4.42966365814209
28-04-1995,5.6875,5.71875,266400,5.71875,5.71875,4.478606700897217
01-05-1995,5.71875,5.75,529200,5.78125,5.75,4.503079891204834
02-05-1995,5.6875,5.75,406400,5.75,5.75,4.503079891204834
03-05-1995,5.75,5.75,199600,5.8125,5.75,4.503079891204834
04-05-1995,5.6875,5.75,215200,5.75,5.71875,4.478606700897217
05-05-1995,5.65625,5.6875,289200,5.75,5.65625,4.42966365814209
08-05-1995,5.625,5.65625,224000,5.6875,5.65625,4.42966365814209
09-05-1995,5.625,5.65625,509200,5.8125,5.8125,4.55202579498291
10-05-1995,5.78125,5.78125,706400,5.9375,5.9375,4.649918079376221
11-05-1995,5.78125,5.90625,222000,5.90625,5.8125,4.55202579498291
12-05-1995,5.75,5.8125,38800,5.8125,5.78125,4.527552604675293
15-05-1995,5.78125,5.8125,279600,5.875,5.875,4.600971221923828
16-05-1995,5.84375,5.90625,43200,5.9375,5.84375,4.576501369476318
17-05-1995,5.78125,5.84375,295600,5.84375,5.8125,4.55202579498291
18-05-1995,5.65625,5.8125,107600,5.8125,5.71875,4.478606700897217
19-05-1995,5.71875,5.71875,130800,5.75,5.75,4.503079891204834
22-05-1995,5.6875,5.75,64000,5.75,5.6875,4.454133987426758
23-05-1995,5.71875,5.71875,340800,5.90625,5.875,4.600971221923828
24-05-1995,5.84375,5.875,449200,6.09375,6.09375,4.7722859382629395
25-05-1995,6.0,6.03125,798400,6.125,6.0625,4.747811317443848
26-05-1995,5.9375,6.0625,177600,6.0625,5.96875,4.674393177032471
30-05-1995,5.9375,5.9375,303600,6.03125,6.03125,4.723339557647705
31-05-1995,6.0,6.0625,254800,6.0625,6.0625,4.747811317443848
01-06-1995,6.03125,6.0625,26000,6.09375,6.03125,4.723339557647705
02-06-1995,5.9375,6.0625,201600,6.09375,5.96875,4.674393177032471
05-06-1995,5.96875,6.0,137600,6.0,6.0,4.69886589050293
06-06-1995,5.875,6.0,53200,6.0,5.90625,4.625446796417236
07-06-1995,5.8125,5.9375,307600,5.9375,5.8125,4.55202579498291
08-06-1995,5.75,5.8125,242000,5.8125,5.78125,4.527552604675293
09-06-1995,5.75,5.78125,652000,5.8125,5.78125,4.527552604675293
12-06-1995,5.71875,5.78125,188000,5.78125,5.75,4.503079891204834
13-06-1995,5.6875,5.6875,119200,5.71875,5.71875,4.478606700897217
14-06-1995,5.71875,5.78125,300400,5.78125,5.78125,4.527552604675293
15-06-1995,5.71875,5.75,186800,5.8125,5.8125,4.55202579498291
16-06-1995,5.6875,5.8125,190000,5.8125,5.6875,4.454133987426758
19-06-1995,5.59375,5.65625,399600,5.71875,5.6875,4.454133987426758
20-06-1995,5.34375,5.71875,788000,5.71875,5.34375,4.184928894042969
21-06-1995,5.1875,5.34375,494400,5.34375,5.21875,4.087033748626709
22-06-1995,5.0625,5.21875,762800,5.21875,5.15625,4.038086891174316
23-06-1995,5.1875,5.1875,2558400,5.34375,5.3125,4.160454273223877
26-06-1995,5.25,5.28125,352400,5.375,5.34375,4.184928894042969
27-06-1995,5.3125,5.3125,496800,5.4375,5.40625,4.233875274658203
28-06-1995,5.21875,5.375,1011200,5.375,5.25,4.111509323120117
29-06-1995,5.1875,5.25,250400,5.25,5.1875,4.062561511993408
30-06-1995,5.21875,5.21875,653600,5.4375,5.4375,4.258347511291504
03-07-1995,5.34375,5.40625,317600,5.46875,5.46875,4.2828192710876465
05-07-1995,5.28125,5.4375,124000,5.4375,5.28125,4.135979652404785
06-07-1995,5.21875,5.25,680800,5.28125,5.25,4.111509323120117
07-07-1995,5.21875,5.25,272400,5.25,5.25,4.111509323120117
10-07-1995,5.125,5.28125,638400,5.3125,5.125,4.013613224029541
11-07-1995,5.0,5.125,582000,5.28125,5.15625,4.038086891174316
12-07-1995,5.1875,5.1875,335600,5.28125,5.25,4.117495059967041
13-07-1995,5.21875,5.375,817600,5.4375,5.21875,4.092987537384033
14-07-1995,5.15625,5.25,286000,5.28125,5.1875,4.068480014801025
17-07-1995,5.15625,5.1875,460400,5.25,5.21875,4.092987537384033
18-07-1995,5.21875,5.21875,77600,5.28125,5.28125,4.1420063972473145
19-07-1995,5.1875,5.25,132000,5.28125,5.25,4.117495059967041
20-07-1995,5.25,5.25,379200,5.375,5.28125,4.1420063972473145
21-07-1995,5.21875,5.28125,248000,5.375,5.34375,4.191024303436279
24-07-1995,5.3125,5.3125,176400,5.40625,5.375,4.215532302856445
25-07-1995,5.40625,5.40625,344000,5.46875,5.4375,4.264550685882568
26-07-1995,5.34375,5.40625,244000,5.40625,5.34375,4.191024303436279
27-07-1995,5.21875,5.28125,758000,5.375,5.28125,4.1420063972473145
28-07-1995,5.25,5.3125,111600,5.375,5.375,4.215532302856445
31-07-1995,5.34375,5.34375,217200,5.4375,5.40625,4.2400407791137695
01-08-1995,5.1875,5.375,532800,5.375,5.21875,4.092987537384033
02-08-1995,5.1875,5.21875,302000,5.25,5.21875,4.092987537384033
03-08-1995,5.125,5.1875,552400,5.34375,5.34375,4.191024303436279
04-08-1995,5.28125,5.34375,558800,5.34375,5.34375,4.191024303436279
07-08-1995,5.34375,5.375,101600,5.40625,5.375,4.215532302856445
08-08-1995,5.34375,5.40625,305200,5.4375,5.34375,4.191024303436279
09-08-1995,5.3125,5.40625,703200,5.40625,5.3125,4.166514873504639
10-08-1995,5.1875,5.3125,166000,5.34375,5.1875,4.068480014801025
11-08-1995,5.15625,5.15625,349600,5.3125,5.3125,4.166514873504639
14-08-1995,5.25,5.34375,134400,5.34375,5.25,4.117495059967041
15-08-1995,5.25,5.3125,108800,5.34375,5.25,4.117495059967041
16-08-1995,5.125,5.21875,242000,5.21875,5.21875,4.092987537384033
17-08-1995,5.1875,5.1875,371600,5.3125,5.28125,4.1420063972473145
18-08-1995,5.28125,5.28125,542400,5.5,5.40625,4.2400407791137695
21-08-1995,5.40625,5.46875,575600,5.5,5.40625,4.2400407791137695
22-08-1995,5.4375,5.4375,362400,5.53125,5.53125,4.338076114654541
23-08-1995,5.5625,5.5625,317600,5.71875,5.625,4.411602020263672
24-08-1995,5.46875,5.59375,2007200,5.625,5.5,4.313568115234375
25-08-1995,5.5,5.5,160000,5.53125,5.5,4.313568115234375
28-08-1995,5.46875,5.5,280000,5.5625,5.53125,4.338076114654541
29-08-1995,5.5,5.53125,56400,5.5625,5.53125,4.338076114654541
30-08-1995,5.625,5.625,290400,5.65625,5.65625,4.4361138343811035
31-08-1995,5.6875,5.6875,116800,5.84375,5.8125,4.558657169342041
01-09-1995,5.84375,5.84375,431200,5.96875,5.96875,4.681200981140137
05-09-1995,5.90625,5.96875,545200,6.03125,6.03125,4.730217456817627
06-09-1995,5.90625,5.96875,415600,6.0,6.0,4.705711841583252
07-09-1995,5.78125,6.0,284000,6.03125,6.03125,4.730217456817627
08-09-1995,5.9375,6.03125,248000,6.09375,5.9375,4.656692028045654
11-09-1995,5.9375,5.96875,230800,6.03125,6.03125,4.730217456817627
12-09-1995,5.90625,6.0,312400,6.15625,6.15625,4.828258991241455
13-09-1995,6.03125,6.125,547600,6.125,6.0625,4.754728317260742
14-09-1995,5.9375,6.03125,348000,6.09375,6.09375,4.779238700866699
15-09-1995,6.0625,6.0625,221200,6.1875,6.1875,4.85276460647583
18-09-1995,6.125,6.15625,490000,6.34375,6.21875,4.877270698547363
19-09-1995,6.0,6.15625,504800,6.1875,6.15625,4.828258991241455
20-09-1995,6.0,6.125,284800,6.125,6.0,4.705711841583252
21-09-1995,5.9375,6.0625,451200,6.0625,6.03125,4.730217456817627
22-09-1995,5.78125,6.03125,143600,6.03125,5.875,4.607670783996582
25-09-1995,5.75,5.84375,183200,5.84375,5.78125,4.534148693084717
26-09-1995,5.65625,5.78125,232000,5.78125,5.65625,4.4361138343811035
27-09-1995,5.625,5.6875,229200,5.75,5.75,4.509639263153076
28-09-1995,5.625,5.8125,263600,5.96875,5.625,4.411602020263672
29-09-1995,5.4375,5.59375,635600,5.59375,5.4375,4.264550685882568
02-10-1995,5.4375,5.46875,548400,5.6875,5.59375,4.387096881866455
03-10-1995,5.5625,5.5625,304400,5.6875,5.65625,4.4361138343811035
04-10-1995,5.5625,5.625,230800,5.65625,5.65625,4.4361138343811035
05-10-1995,5.5,5.625,76800,5.625,5.53125,4.338076114654541
06-10-1995,5.5,5.5,259200,5.5625,5.5625,4.362584590911865
09-10-1995,5.5,5.59375,48000,5.59375,5.5,4.313568115234375
10-10-1995,5.375,5.46875,109600,5.46875,5.375,4.215532302856445
11-10-1995,5.34375,5.375,166000,5.40625,5.34375,4.191024303436279
12-10-1995,5.34375,5.375,620000,5.5625,5.5,4.319630146026611
13-10-1995,5.5,5.5,227200,5.59375,5.53125,4.344173431396484
16-10-1995,5.40625,5.53125,188800,5.53125,5.46875,4.2950849533081055
17-10-1995,5.40625,5.4375,398400,5.5,5.5,4.319630146026611
18-10-1995,5.25,5.4375,1966400,5.46875,5.25,4.1232829093933105
19-10-1995,5.21875,5.21875,1503600,5.3125,5.21875,4.098740577697754
20-10-1995,5.125,5.25,333600,5.25,5.125,4.025111675262451
23-10-1995,5.0,5.15625,608000,5.15625,5.0,3.9269394874572754
24-10-1995,4.90625,5.0,1186800,5.0,4.9375,3.877849817276001
25-10-1995,4.71875,4.9375,658400,4.9375,4.71875,3.7060465812683105
26-10-1995,4.6875,4.75,439600,4.8125,4.71875,3.7060465812683105
27-10-1995,4.71875,4.71875,352000,4.875,4.875,3.8287627696990967
30-10-1995,4.9375,4.9375,646800,5.0,4.96875,3.902393102645874
31-10-1995,4.96875,5.0,314800,5.03125,5.0,3.9269394874572754
01-11-1995,5.0,5.0,390800,5.03125,5.0,3.9269394874572754
02-11-1995,4.9375,4.96875,42800,5.0,4.9375,3.877849817276001
03-11-1995,4.875,4.875,165600,4.96875,4.96875,3.902393102645874
06-11-1995,4.90625,4.96875,63600,4.96875,4.90625,3.8533079624176025
07-11-1995,4.9375,4.9375,476400,5.03125,5.03125,3.9514801502227783
08-11-1995,4.875,4.96875,907200,5.0,5.0,3.9269394874572754
09-11-1995,5.03125,5.09375,1176400,5.15625,5.03125,3.9514801502227783
10-11-1995,4.90625,5.03125,550000,5.03125,4.90625,3.8533079624176025
13-11-1995,4.9375,4.96875,446800,5.09375,5.09375,4.000565528869629
14-11-1995,4.9375,5.03125,1045600,5.0625,4.96875,3.902393102645874
15-11-1995,4.96875,4.96875,228000,5.03125,5.0,3.9269394874572754
16-11-1995,5.03125,5.03125,1046400,5.4375,5.375,4.221456527709961
17-11-1995,5.375,5.40625,906800,5.40625,5.40625,4.245999813079834
20-11-1995,5.1875,5.40625,585600,5.40625,5.1875,4.074198246002197
21-11-1995,5.1875,5.21875,363200,5.375,5.34375,4.196915626525879
22-11-1995,5.34375,5.375,432800,5.40625,5.40625,4.245999813079834
24-11-1995,5.3125,5.40625,229200,5.40625,5.3125,4.172370910644531
27-11-1995,5.125,5.21875,851200,5.21875,5.1875,4.074198246002197
28-11-1995,5.1875,5.1875,315200,5.28125,5.25,4.1232829093933105
29-11-1995,5.21875,5.28125,28800,5.28125,5.21875,4.098740577697754
30-11-1995,5.1875,5.28125,311200,5.28125,5.25,4.1232829093933105
01-12-1995,5.25,5.25,308400,5.34375,5.28125,4.147826671600342
04-12-1995,5.125,5.3125,1056000,5.3125,5.3125,4.172370910644531
05-12-1995,5.3125,5.3125,461200,5.375,5.375,4.221456527709961
06-12-1995,5.40625,5.40625,685200,5.4375,5.4375,4.270544052124023
07-12-1995,5.4375,5.4375,720400,5.5,5.5,4.319630146026611
08-12-1995,5.4375,5.46875,18838800,5.65625,5.65625,4.442349433898926
11-12-1995,5.71875,5.8125,5631200,5.875,5.875,4.614149570465088
12-12-1995,5.8125,5.875,2874000,5.90625,5.875,4.614149570465088
13-12-1995,5.84375,5.875,3176800,6.09375,6.0,4.712324142456055
14-12-1995,5.90625,6.03125,2280000,6.09375,5.90625,4.6386942863464355
15-12-1995,5.875,6.1875,1721200,6.21875,6.0,4.712324142456055
18-12-1995,5.8125,5.9375,974000,5.96875,5.96875,4.68778133392334
19-12-1995,5.875,5.96875,876000,6.0625,6.0625,4.761410236358643
20-12-1995,6.03125,6.0625,2001200,6.21875,6.03125,4.736865043640137
21-12-1995,6.0,6.03125,1896800,6.125,6.03125,4.736865043640137
22-12-1995,5.9375,6.09375,1115600,6.15625,6.03125,4.736865043640137
26-12-1995,6.03125,6.09375,490800,6.09375,6.03125,4.736865043640137
27-12-1995,5.9375,6.03125,582000,6.03125,5.9375,4.663238048553467
28-12-1995,5.90625,5.90625,1150800,6.15625,6.15625,4.8350443840026855
29-12-1995,5.9375,6.1875,677200,6.1875,6.0,4.712324142456055
02-01-1996,6.03125,6.0625,579600,6.125,6.09375,4.785954475402832
03-01-1996,5.875,6.125,1148000,6.125,5.96875,4.68778133392334
04-01-1996,5.9375,5.96875,1644000,6.0625,5.96875,4.68778133392334
05-01-1996,5.9375,5.9375,680800,6.09375,6.0625,4.761410236358643
08-01-1996,6.0625,6.0625,779200,6.125,6.125,4.810498237609863
09-01-1996,5.9375,6.15625,948400,6.15625,6.0,4.712324142456055
10-01-1996,5.84375,6.0,516400,6.03125,5.96875,4.68778133392334
11-01-1996,5.6875,5.8125,1618400,5.8125,5.78125,4.546233177185059
12-01-1996,5.75,5.75,555200,5.8125,5.8125,4.57080602645874
15-01-1996,5.75,5.875,1159200,5.875,5.75,4.521658897399902
16-01-1996,5.71875,5.75,1683200,5.8125,5.75,4.521658897399902
17-01-1996,5.59375,5.75,2281600,5.78125,5.75,4.521658897399902
18-01-1996,5.71875,5.75,504000,5.78125,5.78125,4.546233177185059
19-01-1996,5.75,5.8125,803200,5.84375,5.75,4.521658897399902
22-01-1996,5.78125,5.78125,545600,5.875,5.875,4.619955062866211
23-01-1996,5.78125,5.84375,426400,5.90625,5.78125,4.546233177185059
24-01-1996,5.78125,5.8125,539600,5.96875,5.875,4.619955062866211
25-01-1996,5.875,5.875,693600,5.96875,5.9375,4.669105529785156
26-01-1996,5.875,5.90625,1880000,5.90625,5.875,4.619955062866211
29-01-1996,5.875,5.90625,1636800,6.0,6.0,4.718252658843994
30-01-1996,5.96875,6.0,970800,6.03125,6.03125,4.742825031280518
31-01-1996,5.96875,6.03125,650000,6.125,6.09375,4.791975975036621
01-02-1996,6.125,6.125,2182400,6.3125,6.21875,4.89027214050293
02-02-1996,6.125,6.15625,1204000,6.25,6.15625,4.841127395629883
05-02-1996,6.0625,6.09375,923200,6.15625,6.09375,4.791975975036621
06-02-1996,6.03125,6.09375,938400,6.125,6.03125,4.742825031280518
07-02-1996,6.0625,6.09375,838800,6.15625,6.125,4.816549301147461
08-02-1996,6.125,6.125,705600,6.25,6.1875,4.8657002449035645
09-02-1996,6.125,6.1875,1770400,6.28125,6.25,4.9148478507995605
12-02-1996,6.15625,6.25,4923200,6.65625,6.53125,5.136014938354492
13-02-1996,6.25,6.59375,3442800,6.59375,6.34375,4.988569736480713
14-02-1996,6.375,6.375,1570000,6.625,6.5625,5.160590171813965
15-02-1996,6.53125,6.53125,1637600,6.9375,6.90625,5.430908679962158
16-02-1996,6.65625,7.125,2182000,7.125,6.75,5.308036804199219
20-02-1996,6.5625,6.625,421200,6.71875,6.625,5.209740161895752
21-02-1996,6.53125,6.5625,1553600,6.71875,6.71875,5.2834601402282715
22-02-1996,6.59375,6.6875,1300800,6.75,6.6875,5.258886814117432
23-02-1996,6.5625,6.65625,660000,6.75,6.71875,5.2834601402282715
26-02-1996,6.5625,6.625,556400,6.65625,6.59375,5.185163974761963
27-02-1996,6.5,6.53125,532800,6.625,6.59375,5.185163974761963
28-02-1996,6.40625,6.59375,2225600,6.71875,6.40625,5.037717819213867
29-02-1996,6.1875,6.4375,956000,6.4375,6.25,4.9148478507995605
01-03-1996,6.25,6.25,402800,6.34375,6.25,4.9148478507995605
04-03-1996,6.1875,6.25,809200,6.34375,6.3125,4.9639973640441895
05-03-1996,6.15625,6.25,574000,6.25,6.25,4.9148478507995605
06-03-1996,6.1875,6.21875,830000,6.40625,6.40625,5.037717819213867
07-03-1996,6.3125,6.375,1132000,6.40625,6.375,5.013144493103027
08-03-1996,6.1875,6.1875,278400,6.28125,6.21875,4.89027214050293
11-03-1996,6.09375,6.1875,1366400,6.1875,6.15625,4.841127395629883
12-03-1996,6.09375,6.125,1108400,6.15625,6.125,4.816549301147461
13-03-1996,6.125,6.125,1038800,6.1875,6.1875,4.8657002449035645
14-03-1996,6.25,6.25,2724800,6.40625,6.3125,4.9639973640441895
15-03-1996,6.0,6.25,1051600,6.25,6.0625,4.767402172088623
18-03-1996,6.0625,6.09375,4547200,6.375,6.375,5.013144493103027
19-03-1996,6.34375,6.375,473600,6.4375,6.34375,4.988569736480713
20-03-1996,6.1875,6.375,223600,6.375,6.1875,4.8657002449035645
21-03-1996,6.125,6.1875,936800,6.28125,6.125,4.816549301147461
22-03-1996,6.09375,6.15625,1019600,6.1875,6.09375,4.791975975036621
25-03-1996,6.0625,6.0625,907200,6.28125,6.28125,4.9394211769104
26-03-1996,6.25,6.28125,216800,6.3125,6.3125,4.9639973640441895
27-03-1996,6.40625,6.5,1842000,6.59375,6.53125,5.136014938354492
28-03-1996,6.53125,6.53125,1270000,6.65625,6.65625,5.234313011169434
29-03-1996,6.5625,6.59375,1343600,6.625,6.59375,5.185163974761963
01-04-1996,6.5625,6.59375,752800,6.6875,6.6875,5.258886814117432
02-04-1996,6.65625,6.71875,1116400,6.875,6.84375,5.381757736206055
03-04-1996,6.71875,6.78125,1519600,6.96875,6.9375,5.455482006072998
04-04-1996,6.75,6.9375,796800,6.9375,6.875,5.406332015991211
08-04-1996,6.625,6.84375,1262800,6.84375,6.8125,5.357179164886475
09-04-1996,6.8125,6.8125,923200,6.90625,6.875,5.406332015991211
10-04-1996,6.78125,6.8125,1358000,6.96875,6.9375,5.455482006072998
11-04-1996,6.84375,6.875,932000,6.9375,6.875,5.412182331085205
12-04-1996,6.59375,6.875,1120000,6.875,6.65625,5.23997688293457
15-04-1996,6.5625,6.59375,948000,6.78125,6.75,5.313780784606934
16-04-1996,6.6875,6.78125,846000,6.78125,6.75,5.313780784606934
17-04-1996,6.65625,6.75,1494800,6.75,6.6875,5.264581203460693
18-04-1996,6.5,6.6875,1113200,6.6875,6.53125,5.141572952270508
19-04-1996,6.5,6.5,884400,6.6875,6.65625,5.23997688293457
22-04-1996,6.65625,6.65625,2457600,6.90625,6.8125,5.362978458404541
23-04-1996,6.78125,6.9375,1053200,7.0,6.90625,5.4367828369140625
24-04-1996,6.90625,6.90625,1069200,7.15625,7.03125,5.535186290740967
25-04-1996,6.9375,6.96875,536800,7.0,6.9375,5.461385250091553
26-04-1996,6.78125,6.875,486400,6.9375,6.78125,5.338379859924316
29-04-1996,6.71875,6.71875,705200,6.875,6.78125,5.338379859924316
30-04-1996,6.59375,6.8125,779600,6.875,6.625,5.215377330780029
01-05-1996,6.5,6.625,808400,6.75,6.5,5.11697244644165
02-05-1996,6.46875,6.5625,373600,6.59375,6.5625,5.166176795959473
03-05-1996,6.53125,6.625,680000,6.625,6.625,5.215377330780029
06-05-1996,6.5625,6.59375,504400,6.65625,6.5625,5.166176795959473
07-05-1996,6.125,6.625,1395600,6.65625,6.21875,4.89556360244751
08-05-1996,6.1875,6.25,620400,6.34375,6.25,4.920166015625
09-05-1996,6.25,6.25,332000,6.375,6.375,5.0185699462890625
10-05-1996,6.25,6.375,818400,6.40625,6.3125,4.969367504119873
13-05-1996,6.21875,6.25,796000,6.3125,6.25,4.920166015625
14-05-1996,6.15625,6.25,1208800,6.28125,6.15625,4.846362590789795
15-05-1996,6.09375,6.1875,2372400,6.3125,6.3125,4.969367504119873
16-05-1996,6.25,6.34375,379600,6.34375,6.28125,4.944766521453857
17-05-1996,6.1875,6.25,1017600,6.28125,6.25,4.920166015625
20-05-1996,6.25,6.25,425600,6.375,6.34375,4.993968963623047
21-05-1996,6.3125,6.3125,2660400,6.46875,6.4375,5.067773342132568
22-05-1996,6.4375,6.4375,552000,6.5,6.5,5.11697244644165
23-05-1996,6.53125,6.5625,1154800,6.75,6.5625,5.166176795959473
24-05-1996,6.4375,6.5,1701200,6.53125,6.5,5.11697244644165
28-05-1996,6.359375,6.53125,554000,6.53125,6.4375,5.067773342132568
29-05-1996,6.3125,6.40625,613600,6.40625,6.375,5.0185699462890625
30-05-1996,6.25,6.375,604000,6.375,6.3125,4.969367504119873
31-05-1996,6.25,6.34375,493200,6.375,6.3125,4.969367504119873
03-06-1996,6.28125,6.3125,211200,6.3125,6.3125,4.969367504119873
04-06-1996,6.375,6.40625,654800,6.46875,6.375,5.0185699462890625
05-06-1996,6.40625,6.4375,679600,6.46875,6.4375,5.067773342132568
06-06-1996,6.25,6.4375,278800,6.4375,6.28125,4.944766521453857
07-06-1996,6.15625,6.21875,702800,6.34375,6.34375,4.993968963623047
10-06-1996,6.3125,6.34375,241200,6.34375,6.3125,4.969367504119873
11-06-1996,6.28125,6.3125,761600,6.375,6.3125,4.969367504119873
12-06-1996,6.25,6.3125,1385200,6.3125,6.28125,4.944766521453857
13-06-1996,6.09375,6.28125,985600,6.28125,6.1875,4.8709635734558105
14-06-1996,6.15625,6.1875,1093200,6.21875,6.15625,4.846362590789795
17-06-1996,6.0625,6.09375,586400,6.125,6.0625,4.7725605964660645
18-06-1996,5.96875,6.0,1450000,6.125,5.96875,4.698758602142334
19-06-1996,6.03125,6.03125,1416800,6.15625,6.0625,4.7725605964660645
20-06-1996,6.0625,6.09375,1258400,6.125,6.09375,4.797163009643555
21-06-1996,6.0,6.09375,650800,6.09375,6.0,4.723361015319824
24-06-1996,5.96875,6.03125,948000,6.0625,6.0,4.723361015319824
25-06-1996,5.96875,6.03125,2754000,6.25,6.15625,4.846362590789795
26-06-1996,6.21875,6.21875,5256400,6.625,6.625,5.215377330780029
27-06-1996,6.53125,6.59375,4884000,6.75,6.75,5.313780784606934
28-06-1996,6.78125,6.8125,5409200,6.96875,6.96875,5.48598575592041
01-07-1996,6.90625,6.96875,3778800,7.28125,7.28125,5.731994152069092
02-07-1996,7.125,7.15625,2342000,7.25,7.21875,5.682792663574219
03-07-1996,7.125,7.125,1392000,7.21875,7.21875,5.682792663574219
05-07-1996,7.125,7.21875,753600,7.3125,7.28125,5.731994152069092
08-07-1996,7.1875,7.25,924800,7.3125,7.25,5.70739221572876
09-07-1996,7.25,7.25,2440800,7.5625,7.5,5.904200553894043
10-07-1996,7.46875,7.5,3225600,7.65625,7.5625,5.9534010887146
11-07-1996,7.125,7.46875,3954400,7.59375,7.1875,5.6638078689575195
12-07-1996,7.125,7.15625,1191200,7.21875,7.15625,5.639185905456543
15-07-1996,7.09375,7.125,1718400,7.34375,7.125,5.61455774307251
16-07-1996,6.5625,7.0625,1854400,7.09375,6.65625,5.245179176330566
17-07-1996,6.6875,6.6875,2270000,6.96875,6.6875,5.269805431365967
18-07-1996,6.65625,6.75,990400,6.8125,6.71875,5.294426441192627
19-07-1996,6.65625,6.6875,1322800,6.71875,6.6875,5.269805431365967
22-07-1996,6.5625,6.6875,1101600,6.6875,6.59375,5.195929050445557
23-07-1996,6.53125,6.625,2303200,6.8125,6.8125,5.3683037757873535
24-07-1996,6.625,6.75,327600,6.75,6.625,5.220552444458008
25-07-1996,6.375,6.625,762800,6.78125,6.375,5.023553848266602
26-07-1996,6.40625,6.40625,462800,6.5625,6.53125,5.1466779708862305
29-07-1996,6.4375,6.5,676800,6.53125,6.5,5.122049331665039
30-07-1996,6.25,6.46875,1988800,6.53125,6.3125,4.974300861358643
31-07-1996,6.125,6.3125,1733600,6.3125,6.25,4.925053596496582
01-08-1996,6.25,6.25,1422800,6.375,6.3125,4.974300861358643
02-08-1996,6.3125,6.3125,1042800,6.46875,6.46875,5.097426891326904
05-08-1996,6.34375,6.46875,503200,6.59375,6.59375,5.195929050445557
06-08-1996,6.5,6.59375,495200,6.65625,6.65625,5.245179176330566
07-08-1996,6.75,6.75,1542800,6.84375,6.84375,5.392932891845703
08-08-1996,6.75,6.84375,767600,6.875,6.84375,5.392932891845703
09-08-1996,6.71875,6.875,634400,6.875,6.71875,5.294426441192627
12-08-1996,6.625,6.75,167600,6.75,6.625,5.220552444458008
13-08-1996,6.625,6.65625,389600,6.6875,6.625,5.220552444458008
14-08-1996,6.625,6.625,333200,6.65625,6.65625,5.245179176330566
15-08-1996,6.625,6.625,331600,6.75,6.75,5.319056034088135
16-08-1996,6.625,6.6875,329600,6.71875,6.71875,5.294426441192627
19-08-1996,6.625,6.65625,339200,6.78125,6.78125,5.3436784744262695
20-08-1996,6.6875,6.8125,928800,6.8125,6.75,5.319056034088135
21-08-1996,6.59375,6.71875,837600,6.71875,6.65625,5.245179176330566
22-08-1996,6.59375,6.65625,433200,6.6875,6.65625,5.245179176330566
23-08-1996,6.5625,6.59375,228800,6.65625,6.625,5.220552444458008
26-08-1996,6.5625,6.625,488000,6.65625,6.65625,5.245179176330566
27-08-1996,6.5,6.625,669600,6.625,6.5,5.122049331665039
28-08-1996,6.46875,6.5,392800,6.5,6.46875,5.097426891326904
29-08-1996,6.4375,6.46875,499200,6.5,6.46875,5.097426891326904
30-08-1996,6.375,6.4375,160800,6.46875,6.46875,5.097426891326904
03-09-1996,6.5,6.5,1298800,6.59375,6.5625,5.1713032722473145
04-09-1996,6.40625,6.53125,356400,6.53125,6.46875,5.097426891326904
05-09-1996,6.375,6.4375,382800,6.5,6.4375,5.072803020477295
06-09-1996,6.3125,6.4375,2431600,6.59375,6.46875,5.097426891326904
09-09-1996,6.40625,6.46875,501200,6.53125,6.5,5.122049331665039
10-09-1996,6.46875,6.5,488400,6.53125,6.46875,5.097426891326904
11-09-1996,6.46875,6.46875,1305600,6.65625,6.5625,5.1713032722473145
12-09-1996,6.28125,6.53125,1240800,6.53125,6.3125,4.974300861358643
13-09-1996,6.125,6.3125,1250400,6.3125,6.125,4.826550483703613
16-09-1996,6.03125,6.125,1839600,6.125,6.0625,4.7772979736328125
17-09-1996,5.71875,5.875,3505600,5.9375,5.875,4.629547119140625
18-09-1996,5.875,5.90625,2286800,6.09375,6.0,4.7280473709106445
19-09-1996,5.96875,5.96875,2160800,6.09375,6.03125,4.75267219543457
20-09-1996,6.03125,6.03125,601200,6.09375,6.03125,4.75267219543457
23-09-1996,6.0,6.0625,1021600,6.0625,6.03125,4.75267219543457
24-09-1996,5.84375,6.0,1552000,6.0625,5.90625,4.654173374176025
25-09-1996,5.78125,5.90625,1691200,6.0,6.0,4.7280473709106445
26-09-1996,6.03125,6.03125,856400,6.15625,6.125,4.826550483703613
27-09-1996,6.0,6.0625,1036000,6.09375,6.03125,4.75267219543457
30-09-1996,6.0,6.0,1134400,6.21875,6.21875,4.900425434112549
01-10-1996,6.25,6.25,956400,6.3125,6.3125,4.974300861358643
02-10-1996,6.28125,6.3125,774800,6.40625,6.375,5.023553848266602
03-10-1996,6.28125,6.375,691600,6.375,6.28125,4.949674129486084
04-10-1996,6.28125,6.34375,592000,6.40625,6.28125,4.949674129486084
07-10-1996,6.25,6.28125,1552000,6.4375,6.40625,5.048177719116211
08-10-1996,6.34375,6.40625,1220000,6.46875,6.375,5.023553848266602
09-10-1996,6.25,6.375,772800,6.375,6.3125,4.974300861358643
10-10-1996,5.9375,6.21875,2254800,6.21875,6.0,4.733673095703125
11-10-1996,5.9375,6.0,1258800,6.0625,5.9375,4.684362888336182
14-10-1996,5.8125,5.9375,2306000,5.96875,5.84375,4.610401630401611
15-10-1996,5.84375,5.875,1424800,6.0,6.0,4.733673095703125
16-10-1996,5.96875,6.0,1880000,6.09375,6.09375,4.807638168334961
17-10-1996,6.125,6.15625,1636400,6.25,6.25,4.930908679962158
18-10-1996,6.21875,6.25,1060800,6.40625,6.375,5.029527187347412
21-10-1996,6.25,6.34375,722000,6.375,6.25,4.930908679962158
22-10-1996,6.15625,6.25,1494400,6.3125,6.1875,4.881598472595215
23-10-1996,5.96875,6.15625,2842800,6.15625,6.0,4.733673095703125
24-10-1996,6.0,6.03125,1593200,6.09375,6.0625,4.782983303070068
25-10-1996,6.09375,6.09375,1020000,6.21875,6.21875,4.90625524520874
28-10-1996,6.09375,6.15625,995600,6.1875,6.09375,4.807638168334961
29-10-1996,6.03125,6.09375,1533600,6.15625,6.15625,4.856943607330322
30-10-1996,6.15625,6.15625,3300400,6.375,6.375,5.029527187347412
31-10-1996,6.375,6.375,1713200,6.53125,6.4375,5.078835487365723
01-11-1996,6.25,6.4375,1226800,6.46875,6.28125,4.955565452575684
04-11-1996,6.1875,6.25,1135200,6.28125,6.1875,4.881598472595215
05-11-1996,6.1875,6.25,730800,6.25,6.21875,4.90625524520874
06-11-1996,6.125,6.21875,395600,6.21875,6.125,4.832293510437012
07-11-1996,6.0,6.0,1647200,6.0625,6.0,4.733673095703125
08-11-1996,6.0,6.0625,1212400,6.15625,6.15625,4.856943607330322
11-11-1996,6.15625,6.1875,1075600,6.28125,6.25,4.930908679962158
12-11-1996,6.25,6.3125,1186400,6.375,6.25,4.930908679962158
13-11-1996,6.25,6.28125,1387200,6.28125,6.28125,4.955565452575684
14-11-1996,6.28125,6.28125,2227200,6.3125,6.3125,4.980217456817627
15-11-1996,6.21875,6.28125,1321600,6.34375,6.25,4.930908679962158
18-11-1996,6.1875,6.25,682000,6.25,6.25,4.930908679962158
19-11-1996,6.21875,6.25,2281600,6.40625,6.40625,5.0541815757751465
20-11-1996,6.5625,6.75,3805200,6.78125,6.78125,5.350037097930908
21-11-1996,6.59375,6.78125,1956000,6.78125,6.625,5.226767539978027
22-11-1996,6.625,6.65625,2746800,7.0,6.96875,5.497964382171631
